0 dielectric definition file for the following objects
* - Electrocardiograma_PCB
* created using FreeCAD's ElectroMagnetic workbench
* see http://www.freecad.org and http://www.fastfieldsolvers.com

Q FR4  181.49556 -122.5 0.0  181.49556 -122.5 1.51  125.0 -122.5 1.51  125.0 -122.5 0.0  153.24778 -165.2592579296298 0.755
Q FR4  181.49556 -75.3 0.0  181.49556 -75.3 1.51  181.49556 -122.5 1.51  181.49556 -122.5 0.0  217.28513371240402 -98.9 0.755
Q FR4  125.0 -122.5 0.0  125.0 -122.5 1.51  125.0 -75.3 1.51  125.0 -75.3 0.0  89.210426287596 -98.9 0.755
Q FR4  125.0 -75.3 0.0  125.0 -75.3 1.51  181.49556 -75.3 1.51  181.49556 -75.3 0.0  153.24778 -32.54074207037019 0.755
T FR4  126.6 -121.0 0.0  126.6 -121.0 0.0  126.6 -121.0 1.51  126.59999999999998 -119.99333333333334 0.5033333333333333
T FR4  128.2 -118.9 0.0  128.2 -118.9 0.0  128.2 -118.9 1.51  128.2 -117.89333333333335 0.5033333333333333
T FR4  130.7 -118.9 0.0  130.7 -118.9 0.0  130.7 -118.9 1.51  130.7 -117.89333333333335 0.5033333333333333
Q FR4  135.275 -119.75 0.0  135.275 -119.75 1.51  134.575 -119.75 1.51  134.57500000000002 -119.75000000000001 0.0  136.30968086976333 -119.74999999999994 0.755
Q FR4  135.275 -118.85 0.0  135.275 -119.75 0.0  135.275 -119.75 1.51  135.275 -118.85 1.51  133.79356598654962 -119.30000000000001 0.755
Q FR4  134.575 -118.85 0.0  134.575 -118.85 1.51  135.275 -118.85 1.51  135.275 -118.84999999999997 0.0  133.54031913023667 -118.8500000000001 0.755
Q FR4  134.575 -119.75 0.0  134.575 -118.85 0.0  134.575 -118.85 1.51  134.575 -119.75 1.51  136.05643401345037 -119.3 0.755
T FR4  138.175 -119.8 0.0  138.175 -119.8 0.0  138.175 -119.8 1.51  138.175 -118.79333333333332 0.5033333333333333
T FR4  129.8 -114.85 0.0  129.8 -114.85 0.0  129.8 -114.85 1.51  129.8 -113.84333333333332 0.5033333333333333
T FR4  138.6 -110.65 0.0  138.6 -110.65 0.0  138.6 -110.65 1.51  138.59999999999997 -109.64333333333335 0.5033333333333333
T FR4  141.175 -119.8 0.0  141.175 -119.8 0.0  141.175 -119.8 1.51  141.175 -118.79333333333332 0.5033333333333333
T FR4  144.175 -119.8 0.0  144.175 -119.8 0.0  144.175 -119.8 1.51  144.175 -118.79333333333332 0.5033333333333333
Q FR4  147.775 -119.75 0.0  147.775 -119.75 1.51  147.075 -119.75 1.51  147.07500000000002 -119.75000000000001 0.0  148.80968086976333 -119.74999999999994 0.755
Q FR4  147.775 -118.85 0.0  147.775 -119.75 0.0  147.775 -119.75 1.51  147.775 -118.85 1.51  146.29356598654962 -119.30000000000001 0.755
Q FR4  147.075 -118.85 0.0  147.075 -118.85 1.51  147.775 -118.85 1.51  147.775 -118.84999999999997 0.0  146.04031913023667 -118.8500000000001 0.755
Q FR4  147.075 -119.75 0.0  147.075 -118.85 0.0  147.075 -118.85 1.51  147.075 -119.75 1.51  148.55643401345037 -119.3 0.755
T FR4  151.58 -119.2 0.0  151.58 -119.2 0.0  151.58 -119.2 1.51  151.57999999999979 -118.19333333333334 0.5033333333333333
T FR4  132.09 -104.49 0.0  132.09 -104.49 0.0  132.09 -104.49 1.51  132.08999999999997 -103.48333333333332 0.5033333333333333
T FR4  134.27 -106.59 0.0  134.27 -106.59 0.0  134.27 -106.59 1.51  134.2699999999998 -105.58333333333333 0.5033333333333333
T FR4  138.7 -102.05 0.0  138.7 -102.05 0.0  138.7 -102.05 1.51  138.7 -101.04333333333332 0.5033333333333333
T FR4  147.1 -107.45 0.0  147.1 -107.45 0.0  147.1 -107.45 1.51  147.09999999999997 -106.44333333333334 0.5033333333333333
T FR4  151.528344 -107.342913 0.0  151.528344 -107.342913 0.0  151.528344 -107.342913 1.51  151.528344 -106.33624633333332 0.5033333333333333
T FR4  143.5 -103.35 0.0  143.5 -103.35 0.0  143.5 -103.35 1.51  143.5 -102.34333333333332 0.5033333333333333
T FR4  141.97 -101.53 0.0  141.97 -101.53 0.0  141.97 -101.53 1.51  141.96999999999997 -100.52333333333334 0.5033333333333333
T FR4  151.011092 -102.55 0.0  151.011092 -102.55 0.0  151.011092 -102.55 1.51  151.0110920000002 -101.54333333333332 0.5033333333333333
T FR4  152.323592 -102.5 0.0  152.323592 -102.5 0.0  152.323592 -102.5 1.51  152.3235920000002 -101.49333333333334 0.5033333333333333
T FR4  154.4 -119.05 0.0  154.4 -119.05 0.0  154.4 -119.05 1.51  154.4 -118.04333333333332 0.5033333333333333
T FR4  157.1 -119.05 0.0  157.1 -119.05 0.0  157.1 -119.05 1.51  157.09999999999997 -118.04333333333332 0.5033333333333333
T FR4  159.25 -117.8 0.0  159.25 -117.8 0.0  159.25 -117.8 1.51  159.25 -116.79333333333332 0.5033333333333333
T FR4  161.033722 -120.082554 0.0  161.033722 -120.082554 0.0  161.033722 -120.082554 1.51  161.033722 -119.07588733333333 0.5033333333333333
T FR4  159.2 -115.05 0.0  159.2 -115.05 0.0  159.2 -115.05 1.51  159.2 -114.04333333333332 0.5033333333333333
T FR4  157.1 -114.05 0.0  157.1 -114.05 0.0  157.1 -114.05 1.51  157.09999999999997 -113.04333333333332 0.5033333333333333
T FR4  153.0 -111.55 0.0  153.0 -111.55 0.0  153.0 -111.55 1.51  153.0 -110.54333333333332 0.5033333333333333
T FR4  159.2 -110.25 0.0  159.2 -110.25 0.0  159.2 -110.25 1.51  159.2 -109.24333333333334 0.5033333333333333
T FR4  162.963868 -114.247554 0.0  162.963868 -114.247554 0.0  162.963868 -114.247554 1.51  162.963868 -113.24088733333333 0.5033333333333333
Q FR4  172.329 -117.05 0.0  172.329 -117.05 1.51  171.529 -117.05 1.51  171.529 -117.05000000000001 0.0  173.3609150045499 -117.04999999999994 0.755
Q FR4  172.329 -116.35 0.0  172.329 -117.05 0.0  172.329 -117.05 1.51  172.329 -116.35 1.51  170.94431913023672 -116.69999999999999 0.755
Q FR4  171.529 -116.35 0.0  171.529 -116.35 1.51  172.329 -116.35 1.51  172.329 -116.34999999999997 0.0  170.49708499545008 -116.35000000000008 0.755
Q FR4  171.529 -117.05 0.0  171.529 -116.35 0.0  171.529 -116.35 1.51  171.529 -117.05 1.51  172.91368086976328 -116.7 0.755
T FR4  175.229 -118.8 0.0  175.229 -118.8 0.0  175.229 -118.8 1.51  175.22899999999993 -117.79333333333332 0.5033333333333333
Q FR4  178.929 -117.05 0.0  178.929 -117.05 1.51  178.129 -117.05 1.51  178.129 -117.04999999999998 0.0  179.9609150045499 -117.05000000000004 0.755
Q FR4  178.929 -116.35 0.0  178.929 -117.05 0.0  178.929 -117.05 1.51  178.929 -116.35 1.51  177.54431913023672 -116.69999999999999 0.755
Q FR4  178.129 -116.35 0.0  178.129 -116.35 1.51  178.929 -116.35 1.51  178.929 -116.35 0.0  177.0970849954501 -116.35 0.755
Q FR4  178.129 -117.05 0.0  178.129 -116.35 0.0  178.129 -116.35 1.51  178.129 -117.05 1.51  179.51368086976328 -116.7 0.755
T FR4  167.8 -114.35 0.0  167.8 -114.35 0.0  167.8 -114.35 1.51  167.8 -113.34333333333332 0.5033333333333333
T FR4  170.77 -114.13 0.0  170.77 -114.13 0.0  170.77 -114.13 1.51  170.7699999999998 -113.12333333333333 0.5033333333333333
T FR4  175.229 -111.8 0.0  175.229 -111.8 0.0  175.229 -111.8 1.51  175.22899999999993 -110.79333333333332 0.5033333333333333
T FR4  155.9 -108.65 0.0  155.9 -108.65 0.0  155.9 -108.65 1.51  155.9 -107.64333333333335 0.5033333333333333
T FR4  157.888592 -104.4125 0.0  157.888592 -104.4125 0.0  157.888592 -104.4125 1.51  157.88859200000016 -103.40583333333332 0.5033333333333333
T FR4  157.8 -99.25 0.0  157.8 -99.25 0.0  157.8 -99.25 1.51  157.8 -98.24333333333334 0.5033333333333333
Q FR4  172.779 -109.05 0.0  172.779 -109.05 1.51  171.979 -109.05 1.51  171.97899999999998 -109.04999999999998 0.0  173.8109150045499 -109.05000000000004 0.755
Q FR4  172.779 -108.35 0.0  172.779 -109.05 0.0  172.779 -109.05 1.51  172.779 -108.35 1.51  171.3943191302367 -108.69999999999999 0.755
Q FR4  171.979 -108.35 0.0  171.979 -108.35 1.51  172.779 -108.35 1.51  172.779 -108.34999999999998 0.0  170.94708499545013 -108.35000000000004 0.755
Q FR4  171.979 -109.05 0.0  171.979 -108.35 0.0  171.979 -108.35 1.51  171.979 -109.05 1.51  173.3636808697633 -108.7 0.755
T FR4  166.2 -105.45 0.0  166.2 -105.45 0.0  166.2 -105.45 1.51  166.2 -104.44333333333334 0.5033333333333333
T FR4  167.8 -105.45 0.0  167.8 -105.45 0.0  167.8 -105.45 1.51  167.8 -104.44333333333334 0.5033333333333333
T FR4  171.3 -105.65 0.0  171.3 -105.65 0.0  171.3 -105.65 1.51  171.3 -104.64333333333335 0.5033333333333333
Q FR4  175.579 -107.5 0.0  175.579 -107.5 1.51  175.579 -108.3 1.51  175.579 -108.30000000000001 0.0  175.579 -106.46808499545011 0.755
Q FR4  174.879 -107.5 0.0  175.579 -107.5 0.0  175.579 -107.5 1.51  174.879 -107.5 1.51  175.229 -108.8846808697633 0.755
Q FR4  174.879 -108.3 0.0  174.879 -108.3 1.51  174.879 -107.5 1.51  174.87899999999996 -107.5 0.0  174.87900000000008 -109.3319150045499 0.755
Q FR4  175.579 -108.3 0.0  174.879 -108.3 0.0  174.879 -108.3 1.51  175.579 -108.3 1.51  175.22899999999998 -106.9153191302367 0.755
Q FR4  178.479 -109.05 0.0  178.479 -109.05 1.51  177.679 -109.05 1.51  177.679 -109.04999999999998 0.0  179.5109150045499 -109.05000000000004 0.755
Q FR4  178.479 -108.35 0.0  178.479 -109.05 0.0  178.479 -109.05 1.51  178.479 -108.35 1.51  177.09431913023673 -108.69999999999999 0.755
Q FR4  177.679 -108.35 0.0  177.679 -108.35 1.51  178.479 -108.35 1.51  178.479 -108.35 0.0  176.64708499545011 -108.35 0.755
Q FR4  177.679 -109.05 0.0  177.679 -108.35 0.0  177.679 -108.35 1.51  177.679 -109.05 1.51  179.0636808697633 -108.7 0.755
T FR4  178.9 -106.51 0.0  178.9 -106.51 0.0  178.9 -106.51 1.51  178.9 -105.50333333333334 0.5033333333333333
T FR4  166.26 -99.24 0.0  166.26 -99.24 0.0  166.26 -99.24 1.51  166.26 -98.23333333333332 0.5033333333333333
T FR4  173.5 -103.25 0.0  173.5 -103.25 0.0  173.5 -103.25 1.51  173.5 -102.24333333333334 0.5033333333333333
T FR4  176.6 -103.95 0.0  176.6 -103.95 0.0  176.6 -103.95 1.51  176.59999999999997 -102.94333333333334 0.5033333333333333
T FR4  176.7 -99.85 0.0  176.7 -99.85 0.0  176.7 -99.85 1.51  176.69999999999996 -98.84333333333332 0.5033333333333333
T FR4  127.665 -98.665 0.0  127.665 -98.665 0.0  127.665 -98.665 1.51  127.66499999999995 -97.65833333333333 0.5033333333333333
T FR4  128.935 -98.665 0.0  128.935 -98.665 0.0  128.935 -98.665 1.51  128.935 -97.65833333333333 0.5033333333333333
T FR4  131.12 -98.53 0.0  131.12 -98.53 0.0  131.12 -98.53 1.51  131.12 -97.52333333333334 0.5033333333333333
T FR4  138.2 -93.35 0.0  138.2 -93.35 0.0  138.2 -93.35 1.51  138.2 -92.34333333333332 0.5033333333333333
T FR4  141.2 -88.36 0.0  141.2 -88.36 0.0  141.2 -88.36 1.51  141.2 -87.35333333333332 0.5033333333333333
T FR4  147.6 -90.15 0.0  147.6 -90.15 0.0  147.6 -90.15 1.51  147.59999999999997 -89.14333333333335 0.5033333333333333
T FR4  146.323984 -88.505832 0.0  146.323984 -88.505832 0.0  146.323984 -88.505832 1.51  146.323984 -87.49916533333334 0.5033333333333333
T FR4  131.85 -86.4 0.0  131.85 -86.4 0.0  131.85 -86.4 1.51  131.84999999999997 -85.39333333333335 0.5033333333333333
T FR4  131.3 -85.85 0.0  131.3 -85.85 0.0  131.3 -85.85 1.51  131.3 -84.84333333333332 0.5033333333333333
T FR4  132.4 -85.85 0.0  132.4 -85.85 0.0  132.4 -85.85 1.51  132.4 -84.84333333333332 0.5033333333333333
T FR4  131.85 -85.3 0.0  131.85 -85.3 0.0  131.85 -85.3 1.51  131.84999999999997 -84.29333333333332 0.5033333333333333
T FR4  131.3 -84.75 0.0  131.3 -84.75 0.0  131.3 -84.75 1.51  131.3 -83.74333333333334 0.5033333333333333
T FR4  131.85 -84.2 0.0  131.85 -84.2 0.0  131.85 -84.2 1.51  131.84999999999997 -83.19333333333334 0.5033333333333333
T FR4  132.4 -84.75 0.0  132.4 -84.75 0.0  132.4 -84.75 1.51  132.4 -83.74333333333334 0.5033333333333333
T FR4  132.95 -86.4 0.0  132.95 -86.4 0.0  132.95 -86.4 1.51  132.95 -85.39333333333335 0.5033333333333333
T FR4  133.5 -85.85 0.0  133.5 -85.85 0.0  133.5 -85.85 1.51  133.5 -84.84333333333332 0.5033333333333333
T FR4  132.95 -85.3 0.0  132.95 -85.3 0.0  132.95 -85.3 1.51  132.95 -84.29333333333332 0.5033333333333333
T FR4  133.5 -84.75 0.0  133.5 -84.75 0.0  133.5 -84.75 1.51  133.5 -83.74333333333334 0.5033333333333333
T FR4  132.95 -84.2 0.0  132.95 -84.2 0.0  132.95 -84.2 1.51  132.95 -83.19333333333334 0.5033333333333333
T FR4  141.2 -87.09 0.0  141.2 -87.09 0.0  141.2 -87.09 1.51  141.2 -86.08333333333333 0.5033333333333333
T FR4  144.597554 -85.287298 0.0  144.597554 -85.287298 0.0  144.597554 -85.287298 1.51  144.597554 -84.28063133333333 0.5033333333333333
T FR4  149.64 -87.53 0.0  149.64 -87.53 0.0  149.64 -87.53 1.51  149.64 -86.52333333333334 0.5033333333333333
T FR4  141.2 -81.565 0.0  141.2 -81.565 0.0  141.2 -81.565 1.51  141.2 -80.55833333333334 0.5033333333333333
T FR4  141.2 -80.295 0.0  141.2 -80.295 0.0  141.2 -80.295 1.51  141.2 -79.28833333333333 0.5033333333333333
T FR4  143.5 -80.62 0.0  143.5 -80.62 0.0  143.5 -80.62 1.51  143.5 -79.61333333333334 0.5033333333333333
T FR4  141.2 -79.025 0.0  141.2 -79.025 0.0  141.2 -79.025 1.51  141.2 -78.01833333333335 0.5033333333333333
T FR4  141.2 -77.755 0.0  141.2 -77.755 0.0  141.2 -77.755 1.51  141.2 -76.74833333333333 0.5033333333333333
T FR4  149.62 -77.8 0.0  149.62 -77.8 0.0  149.62 -77.8 1.51  149.62 -76.79333333333332 0.5033333333333333
T FR4  159.04 -95.27 0.0  159.04 -95.27 0.0  159.04 -95.27 1.51  159.04 -94.26333333333334 0.5033333333333333
T FR4  160.7 -94.35 0.0  160.7 -94.35 0.0  160.7 -94.35 1.51  160.7 -93.34333333333332 0.5033333333333333
T FR4  164.3 -90.15 0.0  164.3 -90.15 0.0  164.3 -90.15 1.51  164.3 -89.14333333333335 0.5033333333333333
T FR4  171.5 -93.85 0.0  171.5 -93.85 0.0  171.5 -93.85 1.51  171.5 -92.84333333333332 0.5033333333333333
T FR4  169.573165 -90.2125 0.0  169.573165 -90.2125 0.0  169.573165 -90.2125 1.51  169.57316500000016 -89.20583333333335 0.5033333333333333
T FR4  174.0 -91.9 0.0  174.0 -91.9 0.0  174.0 -91.9 1.51  174.0 -90.89333333333335 0.5033333333333333
T FR4  172.875 -90.2125 0.0  172.875 -90.2125 0.0  172.875 -90.2125 1.51  172.875 -89.20583333333335 0.5033333333333333
T FR4  157.6 -87.05 0.0  157.6 -87.05 0.0  157.6 -87.05 1.51  157.59999999999997 -86.04333333333332 0.5033333333333333
T FR4  159.2 -87.05 0.0  159.2 -87.05 0.0  159.2 -87.05 1.51  159.2 -86.04333333333332 0.5033333333333333
T FR4  157.8 -82.95 0.0  157.8 -82.95 0.0  157.8 -82.95 1.51  157.8 -81.94333333333334 0.5033333333333333
T FR4  158.55 -82.2 0.0  158.55 -82.2 0.0  158.55 -82.2 1.51  158.55 -81.19333333333334 0.5033333333333333
T FR4  164.5 -86.65 0.0  164.5 -86.65 0.0  164.5 -86.65 1.51  164.5 -85.64333333333335 0.5033333333333333
T FR4  154.0 -80.4 0.0  154.0 -80.4 0.0  154.0 -80.4 1.51  154.0 -79.39333333333335 0.5033333333333333
T FR4  163.0 -80.4 0.0  163.0 -80.4 0.0  163.0 -80.4 1.51  163.0 -79.39333333333335 0.5033333333333333
T FR4  162.7 -76.65 0.0  162.7 -76.65 0.0  162.7 -76.65 1.51  162.7 -75.64333333333335 0.5033333333333333
T FR4  163.1 -79.15 0.0  163.1 -79.15 0.0  163.1 -79.15 1.51  163.09999999999997 -78.14333333333335 0.5033333333333333
T FR4  175.5 -87.15 0.0  175.5 -87.15 0.0  175.5 -87.15 1.51  175.5 -86.14333333333335 0.5033333333333333
T FR4  179.4 -87.4125 0.0  179.4 -87.4125 0.0  179.4 -87.4125 1.51  179.4 -86.40583333333332 0.5033333333333333
T FR4  179.4 -86.0125 0.0  179.4 -86.0125 0.0  179.4 -86.0125 1.51  179.4 -85.00583333333334 0.5033333333333333
T FR4  178.1 -85.162498 0.0  178.1 -85.162498 0.0  178.1 -85.162498 1.51  178.09999999999997 -84.15583133333334 0.5033333333333333
Q FR4  170.06 -80.5 0.0  170.06 -80.5 1.51  170.66 -80.5 1.51  170.66000000000003 -80.50000000000001 0.0  169.02008077324575 -80.49999999999994 0.755
Q FR4  170.06 -81.1 0.0  170.06 -80.5 0.0  170.06 -80.5 1.51  170.06 -81.1 1.51  171.39991922675426 -80.8 0.755
Q FR4  170.66 -81.1 0.0  170.66 -81.1 1.51  170.06 -81.1 1.51  170.06 -81.09999999999997 0.0  171.69991922675428 -81.10000000000012 0.755
Q FR4  170.66 -80.5 0.0  170.66 -81.1 0.0  170.66 -81.1 1.51  170.66 -80.5 1.51  169.32008077324573 -80.8 0.755
Q FR4  170.06 -76.7 0.0  170.06 -76.7 1.51  170.66 -76.7 1.51  170.66000000000003 -76.7 0.0  169.02008077324575 -76.7 0.755
Q FR4  170.06 -77.3 0.0  170.06 -76.7 0.0  170.06 -76.7 1.51  170.06 -77.3 1.51  171.39991922675426 -77.0 0.755
Q FR4  170.66 -77.3 0.0  170.66 -77.3 1.51  170.06 -77.3 1.51  170.06 -77.3 0.0  171.69991922675428 -77.3 0.755
Q FR4  170.66 -76.7 0.0  170.66 -77.3 0.0  170.66 -77.3 1.51  170.66 -76.7 1.51  169.32008077324573 -77.0 0.755
Q FR4  178.7 -80.5 0.0  178.7 -80.5 1.51  179.3 -80.5 1.51  179.3 -80.49999999999999 0.0  177.6600807732457 -80.50000000000006 0.755
Q FR4  178.7 -81.1 0.0  178.7 -80.5 0.0  178.7 -80.5 1.51  178.7 -81.1 1.51  180.03991922675425 -80.8 0.755
Q FR4  179.3 -81.1 0.0  179.3 -81.1 1.51  178.7 -81.1 1.51  178.7 -81.1 0.0  180.3399192267543 -81.1 0.755
Q FR4  179.3 -80.5 0.0  179.3 -81.1 0.0  179.3 -81.1 1.51  179.3 -80.5 1.51  177.96008077324575 -80.8 0.755
Q FR4  178.7 -76.7 0.0  178.7 -76.7 1.51  179.3 -76.7 1.51  179.3 -76.69999999999997 0.0  177.6600807732457 -76.70000000000013 0.755
Q FR4  178.7 -77.3 0.0  178.7 -76.7 0.0  178.7 -76.7 1.51  178.7 -77.3 1.51  180.03991922675425 -77.0 0.755
Q FR4  179.3 -77.3 0.0  179.3 -77.3 1.51  178.7 -77.3 1.51  178.7 -77.30000000000003 0.0  180.3399192267543 -77.29999999999987 0.755
Q FR4  179.3 -76.7 0.0  179.3 -77.3 0.0  179.3 -77.3 1.51  179.3 -76.7 1.51  177.96008077324575 -77.0 0.755
T FR4  172.23028564453125 -122.5 0.0  169.23602294921875 -122.5 0.0  170.59652709960938 -120.18569946289062 0.0  170.68761189778644 -121.7285664876302 -2.8372369557894452
T FR4  164.4904022216797 -122.5 0.0  162.34356689453125 -122.5 0.0  162.578125 -120.3711929321289 0.0  163.13736470540363 -121.79039764404297 -2.383367564025117
T FR4  148.84112548828125 -122.5 0.0  147.3157501220703 -122.5 0.0  148.17739868164062 -121.47700500488281 0.0  148.11142476399738 -122.15900166829427 -1.360780589288576
T FR4  147.3157501220703 -122.5 0.0  145.3948974609375 -122.5 0.0  146.626953125 -121.5151138305664 0.0  146.44586690266925 -122.1717046101888 -1.5666765205330762
T FR4  145.3948974609375 -122.5 0.0  143.4175567626953 -122.5 0.0  144.44268798828125 -121.40011596679688 0.0  144.4183807373047 -122.13337198893228 -1.6452281486010711
T FR4  135.11270141601562 -122.5 0.0  133.24835205078125 -122.5 0.0  134.50881958007812 -121.36085510253906 0.0  134.28995768229166 -122.12028503417969 -1.6175368259800404
T FR4  130.42356872558594 -122.5 0.0  128.22024536132812 -122.5 0.0  129.77259826660156 -121.21363830566406 0.0  129.47213745117188 -122.07121276855469 -1.8870289556666116
T FR4  181.4955596923828 -89.6488037109375 0.0  181.4955596923828 -93.66079711914062 0.0  178.35830688476562 -91.55770111083984 0.0  180.4498087565104 -91.62243398030598 -3.820435954677723
T FR4  143.75653076171875 -75.30000305175781 0.0  147.4852294921875 -75.30000305175781 0.0  146.2771759033203 -78.51499938964844 0.0  145.8396453857422 -76.37166849772134 -3.749497331194835
T FR4  155.33811950683594 -75.30000305175781 0.0  159.0103302001953 -75.30000305175781 0.0  157.25714111328125 -77.77145385742188 0.0  157.20186360677081 -76.12381998697916 -3.277120328608101
T FR4  172.34327697753906 -75.30000305175781 0.0  174.7725830078125 -75.30000305175781 0.0  173.78173828125 -77.08441162109375 0.0  173.63253275553384 -75.89480590820312 -2.25412036641888
T FR4  125.0 -113.4375991821289 0.0  125.0 -109.42559814453125 0.0  128.05654907226562 -111.22956848144531 0.0  126.0188496907552 -111.36425526936848 -3.7772867617288224
T FR4  125.0 -89.93199920654297 0.0  125.0 -85.872802734375 0.0  128.3378448486328 -87.78888702392578 0.0  126.11261494954427 -87.86456298828125 -3.95817897729749
T FR4  125.0 -85.872802734375 0.0  125.0 -81.24720001220703 0.0  128.07431030273438 -83.78202819824219 0.0  126.02477010091145 -83.6340103149414 -4.109352432723618
T FR4  126.07604217529297 -120.69235229492188 0.0  126.5999984741211 -121.0 0.0  125.8806381225586 -121.36007690429688 0.0  126.18555959065755 -121.01747639973958 -0.7025918323127787
T FR4  126.08548736572266 -120.09133911132812 0.0  126.07604217529297 -120.69235229492188 0.0  125.57940673828125 -120.30882263183594 0.0  125.91364542643228 -120.36417134602864 -0.5931361895137217
T FR4  126.60753631591797 -119.800048828125 0.0  126.08548736572266 -120.09133911132812 0.0  125.92057800292969 -119.65222930908203 0.0  126.20453389485677 -119.84787241617838 -0.5898513785801159
T FR4  127.12210845947266 -120.10436248779297 0.0  126.60753631591797 -119.800048828125 0.0  127.21183013916016 -119.46092987060547 0.0  126.9804916381836 -119.78844706217447 -0.6468083547940863
T FR4  127.11835479736328 -120.7021713256836 0.0  127.12210845947266 -120.10436248779297 0.0  127.96412658691406 -120.36176300048828 0.0  127.40152994791666 -120.38943227132161 -0.7966697147412053
T FR4  126.5999984741211 -121.0 0.0  127.11835479736328 -120.7021713256836 0.0  127.05369567871094 -121.58609008789062 0.0  126.92401631673177 -121.09608713785806 -0.741760838655134
T FR4  127.76646423339844 -118.64909362792969 0.0  128.1999969482422 -118.9000015258789 0.0  127.76036071777344 -119.16248321533203 0.0  127.90894063313802 -118.9038594563802 -0.5087874411468705
T FR4  127.76803588867188 -118.14818572998047 0.0  127.76646423339844 -118.64909362792969 0.0  127.23395538330078 -118.44911193847656 0.0  127.58948516845703 -118.41546376546223 -0.5609187931411371
T FR4  128.1999969482422 -117.9000015258789 0.0  127.76803588867188 -118.14818572998047 0.0  127.7156753540039 -117.5528335571289 0.0  127.89456939697266 -117.86700693766275 -0.5639098406192299
T FR4  128.63352966308594 -118.15090942382812 0.0  128.1999969482422 -117.9000015258789 0.0  128.67677307128906 -117.56874084472656 0.0  128.50343322753906 -117.87321726481119 -0.555078768454007
T FR4  128.6319580078125 -118.65180969238281 0.0  128.63352966308594 -118.15090942382812 0.0  129.1256561279297 -118.46804809570312 0.0  128.7970479329427 -118.42358907063802 -0.5377176534936586
T FR4  128.1999969482422 -118.9000015258789 0.0  128.6319580078125 -118.65180969238281 0.0  128.55999755859375 -119.10430145263672 0.0  128.46398417154947 -118.88537089029947 -0.4567651024382087
T FR4  130.26646423339844 -118.64909362792969 0.0  130.6999969482422 -118.9000015258789 0.0  130.06829833984375 -119.18814086914062 0.0  130.34491984049478 -118.91241200764973 -0.589844579451874
T FR4  130.26803588867188 -118.14818572998047 0.0  130.26646423339844 -118.64909362792969 0.0  129.684814453125 -118.28446197509766 0.0  130.07310485839844 -118.36058044433594 -0.5954448369022235
T FR4  130.70314025878906 -117.90000915527344 0.0  130.26803588867188 -118.14818572998047 0.0  130.2190704345703 -117.49261474609375 0.0  130.39674886067706 -117.84693654378255 -0.5969971496150009
T FR4  131.13352966308594 -118.15090942382812 0.0  130.70314025878906 -117.90000915527344 0.0  131.18099975585938 -117.52227020263672 0.0  131.00588989257812 -117.85772959391275 -0.5792464106680866
T FR4  131.1319580078125 -118.65180969238281 0.0  131.13352966308594 -118.15090942382812 0.0  131.6595916748047 -118.43134307861328 0.0  131.30835978190103 -118.4113540649414 -0.5562951622354857
T FR4  130.6999969482422 -118.9000015258789 0.0  131.1319580078125 -118.65180969238281 0.0  131.10971069335938 -119.26990509033203 0.0  130.98055521647134 -118.94057210286458 -0.5562242804306875
T FR4  135.0926513671875 -120.05723571777344 0.0  135.27499389648438 -119.75 0.0  135.6405792236328 -120.0213623046875 0.0  135.33607482910156 -119.94286600748697 -0.4538877399097762
T FR4  134.74212646484375 -120.04842376708984 0.0  135.0926513671875 -120.05723571777344 0.0  134.93959045410156 -120.60150909423828 0.0  134.92478942871094 -120.23572285970052 -0.5010998180837424
T FR4  134.5749969482422 -119.75 0.0  134.74212646484375 -120.04842376708984 0.0  134.32095336914062 -120.00009155273438 0.0  134.5460255940755 -119.9328384399414 -0.37415404532905266
T FR4  134.5749969482422 -119.2864990234375 0.0  134.5749969482422 -119.75 0.0  134.16207885742188 -119.58855438232422 0.0  134.4373575846354 -119.54168446858723 -0.47282093186423824
T FR4  134.5749969482422 -118.8499984741211 0.0  134.5749969482422 -119.2864990234375 0.0  134.15185546875 -119.04995727539062 0.0  134.43394978841144 -119.06215159098306 -0.4630926881329987
T FR4  134.5749969482422 -119.2864990234375 0.0  134.16207885742188 -119.58855438232422 0.0  134.15185546875 -119.04995727539062 0.0  134.2963104248047 -119.30833689371744 -0.511688992609745
T FR4  134.76123046875 -118.54067993164062 0.0  134.5749969482422 -118.8499984741211 0.0  134.2862548828125 -118.5760269165039 0.0  134.54082743326822 -118.6555684407552 -0.41179330449182955
T FR4  135.1060028076172 -118.55043029785156 0.0  134.76123046875 -118.54067993164062 0.0  134.89756774902344 -118.14878845214844 0.0  134.92160034179688 -118.41329956054688 -0.4041152238306691
T FR4  135.27499389648438 -118.8499984741211 0.0  135.1060028076172 -118.55043029785156 0.0  135.564453125 -118.51009368896484 0.0  135.31514994303384 -118.6368408203125 -0.4168741845835197
T FR4  135.27499389648438 -119.28739929199219 0.0  135.27499389648438 -118.8499984741211 0.0  135.79624938964844 -118.9806900024414 0.0  135.44874572753906 -119.03936258951822 -0.526528711210098
T FR4  135.27499389648438 -119.75 0.0  135.27499389648438 -119.28739929199219 0.0  135.73468017578125 -119.53721618652344 0.0  135.42822265625 -119.52487182617188 -0.49744293888056396
T FR4  135.27499389648438 -119.28739929199219 0.0  135.79624938964844 -118.9806900024414 0.0  135.73468017578125 -119.53721618652344 0.0  135.6019744873047 -119.268435160319 -0.5626332753510547
T FR4  137.74147033691406 -119.5490951538086 0.0  138.1750030517578 -119.80000305175781 0.0  137.08468627929688 -120.48762512207031 0.0  137.66705322265625 -119.94557444254556 -0.9784851962653809
T FR4  137.7430419921875 -119.04818725585938 0.0  137.74147033691406 -119.5490951538086 0.0  137.12350463867188 -119.22293853759766 0.0  137.53600565592447 -119.27340698242188 -0.6144592512851724
T FR4  138.1750030517578 -118.80000305175781 0.0  137.7430419921875 -119.04818725585938 0.0  137.6758575439453 -118.45806121826172 0.0  137.86463419596353 -118.7687505086263 -0.5657193793202896
T FR4  138.60853576660156 -119.05091094970703 0.0  138.1750030517578 -118.80000305175781 0.0  138.64842224121094 -118.48003387451172 0.0  138.4773203531901 -118.77698262532552 -0.5481934653916005
T FR4  138.60696411132812 -119.55181121826172 0.0  138.60853576660156 -119.05091094970703 0.0  139.1363983154297 -119.36414337158203 0.0  138.78396606445312 -119.3222885131836 -0.5588055504713704
T FR4  138.1750030517578 -119.80000305175781 0.0  138.60696411132812 -119.55181121826172 0.0  138.60580444335938 -120.15914916992188 0.0  138.46259053548175 -119.8369878133138 -0.555465287248548
T FR4  129.66993713378906 -114.77472686767578 0.0  129.8000030517578 -114.8499984741211 0.0  129.65667724609375 -114.96232604980469 0.0  129.70887247721353 -114.86235046386719 -0.17348057749252496
T FR4  129.67041015625 -114.62445831298828 0.0  129.66993713378906 -114.77472686767578 0.0  129.49270629882812 -114.7098388671875 0.0  129.61101786295572 -114.70300801595052 -0.17871870252098587
T FR4  129.8000030517578 -114.55000305175781 0.0  129.67041015625 -114.62445831298828 0.0  129.64157104492188 -114.4398422241211 0.0  129.70399475097656 -114.53810119628906 -0.1764267715387445
T FR4  129.9300537109375 -114.62527465820312 0.0  129.8000030517578 -114.55000305175781 0.0  129.955078125 -114.41252136230469 0.0  129.8950449625651 -114.52926635742188 -0.1905752028001425
T FR4  129.92959594726562 -114.77554321289062 0.0  129.9300537109375 -114.62527465820312 0.0  130.1467742919922 -114.69942474365234 0.0  130.00214131673175 -114.70008087158203 -0.20315177187928812
T FR4  129.8000030517578 -114.8499984741211 0.0  129.92959594726562 -114.77554321289062 0.0  129.95628356933594 -114.97862243652344 0.0  129.89529418945312 -114.86805470784505 -0.1855629494633134
T FR4  138.4704132080078 -110.57554626464844 0.0  138.60000610351562 -110.6500015258789 0.0  138.4549560546875 -110.83061981201172 0.0  138.50845845540363 -110.68538920084634 -0.21221726830516696
T FR4  138.46946716308594 -110.42609405517578 0.0  138.4704132080078 -110.57554626464844 0.0  138.23895263671875 -110.53660583496094 0.0  138.3929443359375 -110.51274871826172 -0.2132682054234878
T FR4  138.59811401367188 -110.35001373291016 0.0  138.46946716308594 -110.42609405517578 0.0  138.3970184326172 -110.21166229248047 0.0  138.48819986979166 -110.32925669352213 -0.20663035865564047
T FR4  138.72862243652344 -110.42283630371094 0.0  138.59811401367188 -110.35001373291016 0.0  138.75074768066406 -110.18324279785156 0.0  138.69249471028644 -110.31869761149088 -0.20537936964469372
T FR4  138.73098754882812 -110.57308959960938 0.0  138.72862243652344 -110.42283630371094 0.0  138.9348602294922 -110.47286987304688 0.0  138.79815673828125 -110.48959859212239 -0.1965553750682887
T FR4  138.60000610351562 -110.6500015258789 0.0  138.73098754882812 -110.57308959960938 0.0  138.80197143554688 -110.78032684326172 0.0  138.7109883626302 -110.66780598958333 -0.20377133973662773
T FR4  140.74462890625 -119.55451965332031 0.0  141.1750030517578 -119.80000305175781 0.0  140.7757110595703 -120.1006088256836 0.0  140.89844767252603 -119.81837717692056 -0.5140781096103412
T FR4  140.73533630371094 -119.06188201904297 0.0  140.74462890625 -119.55451965332031 0.0  140.2360382080078 -119.37017059326172 0.0  140.5720011393229 -119.328857421875 -0.5401670132218769
T FR4  141.15615844726562 -118.80035400390625 0.0  140.73533630371094 -119.06188201904297 0.0  140.62164306640625 -118.50801849365234 0.0  140.83771260579425 -118.79008483886719 -0.5567047975885981
T FR4  141.59376525878906 -119.02680206298828 0.0  141.15615844726562 -118.80035400390625 0.0  141.59410095214844 -118.34933471679688 0.0  141.44800821940103 -118.72549692789713 -0.5996172913854367
T FR4  141.62332153320312 -119.52137756347656 0.0  141.59376525878906 -119.02680206298828 0.0  142.14881896972656 -119.22955322265625 0.0  141.78863525390625 -119.25924428304036 -0.5624909887113431
T FR4  141.1750030517578 -119.80000305175781 0.0  141.62332153320312 -119.52137756347656 0.0  141.72561645507812 -120.02264404296875 0.0  141.5079803466797 -119.78134155273438 -0.5444555670073217
T FR4  143.7430419921875 -119.55181121826172 0.0  144.1750030517578 -119.80000305175781 0.0  143.8319549560547 -120.13137817382812 0.0  143.91666666666666 -119.82773081461588 -0.5204981309706401
T FR4  143.73837280273438 -119.0563735961914 0.0  143.7430419921875 -119.55181121826172 0.0  143.22276306152344 -119.32100677490234 0.0  143.56805928548175 -119.30973052978516 -0.5480634422538916
T FR4  144.1624298095703 -118.80015563964844 0.0  143.73837280273438 -119.0563735961914 0.0  143.64364624023438 -118.46344757080078 0.0  143.848149617513 -118.77332560221353 -0.5714564493190535
T FR4  144.59884643554688 -119.03474426269531 0.0  144.1624298095703 -118.80015563964844 0.0  144.66268920898438 -118.40607452392578 0.0  144.4746551513672 -118.74699147542317 -0.5880697803637921
T FR4  144.6190643310547 -119.52979278564453 0.0  144.59884643554688 -119.03474426269531 0.0  145.07748413085938 -119.26215362548828 0.0  144.76513163248697 -119.2755635579427 -0.5187348033976263
T FR4  144.1750030517578 -119.80000305175781 0.0  144.6190643310547 -119.52979278564453 0.0  144.67672729492188 -119.96281433105469 0.0  144.49026489257812 -119.76420338948567 -0.494711702450298
T FR4  147.5926513671875 -120.05723571777344 0.0  147.77499389648438 -119.75 0.0  148.10043334960938 -120.03385925292969 0.0  147.82269287109375 -119.94703165690103 -0.4324773703470833
T FR4  147.24212646484375 -120.04842376708984 0.0  147.5926513671875 -120.05723571777344 0.0  147.4676513671875 -120.47146606445312 0.0  147.43414306640625 -120.19237518310547 -0.4209058010315625
T FR4  147.0749969482422 -119.75 0.0  147.24212646484375 -120.04842376708984 0.0  146.6919403076172 -120.03003692626953 0.0  147.00302124023438 -119.94282023111978 -0.45567761929857076
T FR4  147.0749969482422 -119.2864990234375 0.0  147.0749969482422 -119.75 0.0  146.64309692382812 -119.50521850585938 0.0  146.9310302734375 -119.51390584309895 -0.4813559079948146
T FR4  147.0749969482422 -118.8499984741211 0.0  147.0749969482422 -119.2864990234375 0.0  146.6934051513672 -119.01441192626953 0.0  146.9477996826172 -119.05030314127603 -0.44022225116959707
T FR4  147.0749969482422 -119.2864990234375 0.0  146.64309692382812 -119.50521850585938 0.0  146.6934051513672 -119.01441192626953 0.0  146.8038330078125 -119.26870981852213 -0.48205451624796064
T FR4  147.25735473632812 -118.54276275634766 0.0  147.0749969482422 -118.8499984741211 0.0  146.8137969970703 -118.57859802246094 0.0  147.04871622721353 -118.65711975097656 -0.3929853975775708
T FR4  147.60787963867188 -118.55157470703125 0.0  147.25735473632812 -118.54276275634766 0.0  147.42515563964844 -118.1340103149414 0.0  147.4301300048828 -118.4094492594401 -0.4160947974656645
T FR4  147.77499389648438 -118.8499984741211 0.0  147.60787963867188 -118.55157470703125 0.0  148.11097717285156 -118.50950622558594 0.0  147.83128356933594 -118.63702646891275 -0.44174450307540397
T FR4  147.77499389648438 -119.28739929199219 0.0  147.77499389648438 -118.8499984741211 0.0  148.2926788330078 -118.98152923583984 0.0  147.9475555419922 -119.03964233398438 -0.5242758506002927
T FR4  147.77499389648438 -119.75 0.0  147.77499389648438 -119.28739929199219 0.0  148.2701873779297 -119.5452651977539 0.0  147.94005839029947 -119.52755482991536 -0.5189199248734939
T FR4  147.77499389648438 -119.28739929199219 0.0  148.2926788330078 -118.98152923583984 0.0  148.2701873779297 -119.5452651977539 0.0  148.11262003580728 -119.27139790852864 -0.5745964756733393
T FR4  151.44993591308594 -119.12472534179688 0.0  151.5800018310547 -119.19999694824219 0.0  151.4381103515625 -119.32195281982422 0.0  151.48934936523438 -119.21555836995442 -0.1783193333520768
T FR4  151.45040893554688 -118.97445678710938 0.0  151.44993591308594 -119.12472534179688 0.0  151.2613525390625 -119.07415771484375 0.0  151.3872324625651 -119.05777994791666 -0.18641653066065347
T FR4  151.58094787597656 -118.9000015258789 0.0  151.45040893554688 -118.97445678710938 0.0  151.3992462158203 -118.78816986083984 0.0  151.47686767578125 -118.88754272460938 -0.18560771886338567
T FR4  151.71006774902344 -118.97527313232422 0.0  151.58094787597656 -118.9000015258789 0.0  151.7219696044922 -118.77595520019531 0.0  151.67099507649738 -118.88374328613281 -0.17898218584844397
T FR4  151.7095947265625 -119.12554168701172 0.0  151.71006774902344 -118.97527313232422 0.0  151.87860107421875 -119.03971099853516 0.0  151.76608784993488 -119.04684193929036 -0.17341785986077704
T FR4  151.5800018310547 -119.19999694824219 0.0  151.7095947265625 -119.12554168701172 0.0  151.73948669433594 -119.30458068847656 0.0  151.67636108398438 -119.21003977457681 -0.17389781512504324
T FR4  131.96041870117188 -104.41554260253906 0.0  132.08999633789062 -104.48999786376953 0.0  131.92385864257812 -104.5969467163086 0.0  131.99142456054688 -104.50082906087239 -0.17736065276621474
T FR4  131.95994567871094 -104.26527404785156 0.0  131.96041870117188 -104.41554260253906 0.0  131.77609252929688 -104.3232192993164 0.0  131.89881896972656 -104.33467864990234 -0.18306408834074286
T FR4  132.09283447265625 -104.19002532958984 0.0  131.95994567871094 -104.26527404785156 0.0  131.96261596679688 -104.06407165527344 0.0  132.005132039388 -104.17312367757161 -0.17836702301234528
T FR4  132.2209930419922 -104.26691436767578 0.0  132.09283447265625 -104.19002532958984 0.0  132.24957275390625 -104.10609436035156 0.0  132.18780008951822 -104.18767801920572 -0.16352985395211447
T FR4  132.2191162109375 -104.4163589477539 0.0  132.2209930419922 -104.26691436767578 0.0  132.3752899169922 -104.34599304199219 0.0  132.27179972330728 -104.34308878580728 -0.16471040051082245
T FR4  132.08999633789062 -104.48999786376953 0.0  132.2191162109375 -104.4163589477539 0.0  132.23301696777344 -104.61194610595703 0.0  132.1807098388672 -104.50610097249348 -0.1775586648527837
T FR4  134.1399383544922 -106.51472473144531 0.0  134.27000427246094 -106.58999633789062 0.0  134.09327697753906 -106.7077407836914 0.0  134.16773986816406 -106.60415395100911 -0.18707042601845625
T FR4  134.14041137695312 -106.36445617675781 0.0  134.1399383544922 -106.51472473144531 0.0  133.9646759033203 -106.42159271240234 0.0  134.08167521158853 -106.43359120686848 -0.17784341018033722
T FR4  134.27000427246094 -106.29000091552734 0.0  134.14041137695312 -106.36445617675781 0.0  134.13108825683594 -106.15926361083984 0.0  134.18050130208331 -106.271240234375 -0.18187477974298005
T FR4  134.40005493164062 -106.36527252197266 0.0  134.27000427246094 -106.29000091552734 0.0  134.44039916992188 -106.16230010986328 0.0  134.37015279134113 -106.27252451578775 -0.19004753552466902
T FR4  134.3995819091797 -106.51554107666016 0.0  134.40005493164062 -106.36527252197266 0.0  134.64437866210938 -106.43767547607422 0.0  134.48133850097656 -106.43949635823567 -0.220659179333041
T FR4  134.27000427246094 -106.58999633789062 0.0  134.3995819091797 -106.51554107666016 0.0  134.44174194335938 -106.75402069091797 0.0  134.37044270833331 -106.61985270182291 -0.2097017761032819
T FR4  138.5699462890625 -101.9747314453125 0.0  138.6999969482422 -102.05000305175781 0.0  138.5157012939453 -102.23719024658203 0.0  138.59521484375 -102.08730824788411 -0.22698497520765085
T FR4  138.57040405273438 -101.82445526123047 0.0  138.5699462890625 -101.9747314453125 0.0  138.32069396972656 -101.9091796875 0.0  138.4870147705078 -101.90278879801431 -0.22389890572397894
T FR4  138.70094299316406 -101.75 0.0  138.57040405273438 -101.82445526123047 0.0  138.5131072998047 -101.58812713623047 0.0  138.59481811523438 -101.72086079915364 -0.21380540237030762
T FR4  138.83006286621094 -101.82527160644531 0.0  138.70094299316406 -101.75 0.0  138.88136291503906 -101.58540344238281 0.0  138.8041229248047 -101.72022501627603 -0.21299022764647102
T FR4  138.82958984375 -101.97554016113281 0.0  138.83006286621094 -101.82527160644531 0.0  139.08531188964844 -101.90032958984375 0.0  138.91498819986978 -101.90038045247395 -0.22762601383491657
T FR4  138.6999969482422 -102.05000305175781 0.0  138.82958984375 -101.97554016113281 0.0  138.9034423828125 -102.2414321899414 0.0  138.81100972493488 -102.088991800944 -0.23492271882994645
T FR4  146.96994018554688 -107.37472534179688 0.0  147.10000610351562 -107.44999694824219 0.0  146.94464111328125 -107.57555389404297 0.0  147.0048624674479 -107.46675872802734 -0.18414965895350144
T FR4  146.96994018554688 -107.22527313232422 0.0  146.96994018554688 -107.37472534179688 0.0  146.83004760742188 -107.30432891845703 0.0  146.92330932617188 -107.3014424641927 -0.15558131464092798
T FR4  147.09906005859375 -107.1500015258789 0.0  146.96994018554688 -107.22527313232422 0.0  146.92408752441406 -107.04462432861328 0.0  146.99769592285156 -107.1399663289388 -0.18002983631359418
T FR4  147.22911071777344 -107.22364044189453 0.0  147.09906005859375 -107.1500015258789 0.0  147.23326110839844 -107.01307678222656 0.0  147.18714396158853 -107.12890625 -0.1839269995161711
T FR4  147.23098754882812 -107.37308502197266 0.0  147.22911071777344 -107.22364044189453 0.0  147.43115234375 -107.2705078125 0.0  147.29708353678384 -107.28907775878906 -0.19392682733275624
T FR4  147.10000610351562 -107.44999694824219 0.0  147.23098754882812 -107.37308502197266 0.0  147.27175903320312 -107.5632553100586 0.0  147.20091756184894 -107.46211242675781 -0.1840397407272729
T FR4  151.39828491210938 -107.26763916015625 0.0  151.52835083007812 -107.34291076660156 0.0  151.37515258789062 -107.50548553466797 0.0  151.43392944335938 -107.37201182047525 -0.20420951561409076
T FR4  151.3987579345703 -107.11737060546875 0.0  151.39828491210938 -107.26763916015625 0.0  151.198486328125 -107.20904541015625 0.0  151.33184305826822 -107.19801839192708 -0.19291301743230796
T FR4  151.52835083007812 -107.04291534423828 0.0  151.3987579345703 -107.11737060546875 0.0  151.35848999023438 -106.90740966796875 0.0  151.42853291829425 -107.02256520589192 -0.19351172829775667
T FR4  151.6584014892578 -107.1181869506836 0.0  151.52835083007812 -107.04291534423828 0.0  151.724609375 -106.91105651855469 0.0  151.63712056477863 -107.02405293782552 -0.2013860923797511
T FR4  151.65792846679688 -107.2684555053711 0.0  151.6584014892578 -107.1181869506836 0.0  151.9243927001953 -107.09823608398438 0.0  151.74690755208331 -107.16162618001302 -0.24440013335825386
T FR4  151.52835083007812 -107.34291076660156 0.0  151.65792846679688 -107.2684555053711 0.0  151.73440551757812 -107.49275970458984 0.0  151.64022827148438 -107.3680419921875 -0.213736533458269
T FR4  143.36993408203125 -103.27472686767578 0.0  143.5 -103.3499984741211 0.0  143.29962158203125 -103.4935531616211 0.0  143.38985188802081 -103.37275950113931 -0.2088719209855728
T FR4  143.3704071044922 -103.12445831298828 0.0  143.36993408203125 -103.27472686767578 0.0  143.14334106445312 -103.1538314819336 0.0  143.2945607503255 -103.18433888753255 -0.21201809082211218
T FR4  143.5 -103.05000305175781 0.0  143.3704071044922 -103.12445831298828 0.0  143.35989379882812 -102.916259765625 0.0  143.41010030110675 -103.03024037679036 -0.18387187296118065
T FR4  143.63006591796875 -103.12527465820312 0.0  143.5 -103.05000305175781 0.0  143.67208862304688 -102.93233489990234 0.0  143.60071818033853 -103.03587086995442 -0.18540354630272346
T FR4  143.6295928955078 -103.27554321289062 0.0  143.63006591796875 -103.12527465820312 0.0  143.81521606445312 -103.21017456054688 0.0  143.69162495930988 -103.2036641438802 -0.18358454534514243
T FR4  143.5 -103.3499984741211 0.0  143.6295928955078 -103.27554321289062 0.0  143.65603637695312 -103.49384307861328 0.0  143.59520975748697 -103.37312825520833 -0.19385912767949773
T FR4  141.83993530273438 -101.45472717285156 0.0  141.97000122070312 -101.52999877929688 0.0  141.78314208984375 -101.67974090576172 0.0  141.8643595377604 -101.55482228597005 -0.20726744652691043
T FR4  141.83993530273438 -101.3052749633789 0.0  141.83993530273438 -101.45472717285156 0.0  141.6058807373047 -101.35001373291016 0.0  141.7619171142578 -101.37000528971353 -0.21471831509807446
T FR4  141.97000122070312 -101.2300033569336 0.0  141.83993530273438 -101.3052749633789 0.0  141.82272338867188 -101.08175659179688 0.0  141.87755330403644 -101.20567830403645 -0.19447497684233303
T FR4  142.09959411621094 -101.30445861816406 0.0  141.97000122070312 -101.2300033569336 0.0  142.13975524902344 -101.10254669189453 0.0  142.06978352864581 -101.21233622233072 -0.18920108341397976
T FR4  142.09959411621094 -101.4555435180664 0.0  142.09959411621094 -101.30445861816406 0.0  142.30381774902344 -101.38652038574219 0.0  142.16766866048175 -101.38217417399088 -0.19558382944527883
T FR4  141.97000122070312 -101.52999877929688 0.0  142.09959411621094 -101.4555435180664 0.0  142.13113403320312 -101.6645278930664 0.0  142.06690979003906 -101.55002339680989 -0.1902396220438123
T FR4  150.88197326660156 -102.47635650634766 0.0  151.01109313964844 -102.55000305175781 0.0  150.85287475585938 -102.67166900634766 0.0  150.91531372070312 -102.56600952148438 -0.1819011187194081
T FR4  150.879638671875 -102.3277359008789 0.0  150.88197326660156 -102.47635650634766 0.0  150.6599884033203 -102.41561126708984 0.0  150.80720011393228 -102.4065678914388 -0.20512045538481247
T FR4  151.01296997070312 -102.25001525878906 0.0  150.879638671875 -102.3277359008789 0.0  150.83348083496094 -102.1323471069336 0.0  150.908696492513 -102.23669942220052 -0.1899059090326581
T FR4  151.1411590576172 -102.32527160644531 0.0  151.01296997070312 -102.25001525878906 0.0  151.16464233398438 -102.11088562011719 0.0  151.10625712076822 -102.22872416178384 -0.19004488139333786
T FR4  151.14207458496094 -102.47309112548828 0.0  151.1411590576172 -102.32527160644531 0.0  151.3201446533203 -102.41185760498047 0.0  151.2011260986328 -102.40340677897134 -0.1783185433103843
T FR4  151.01109313964844 -102.55000305175781 0.0  151.14207458496094 -102.47309112548828 0.0  151.14599609375 -102.67388916015625 0.0  151.09972127278644 -102.56566111246744 -0.1786289645797597
T FR4  152.1935272216797 -102.42472839355469 0.0  152.32359313964844 -102.5 0.0  152.16708374023438 -102.64020538330078 0.0  152.22806803385416 -102.52164459228516 -0.192498438753253
T FR4  152.19400024414062 -102.27445983886719 0.0  152.1935272216797 -102.42472839355469 0.0  152.0137176513672 -102.34127044677734 0.0  152.13374837239581 -102.34681955973306 -0.1802557809941707
T FR4  152.32359313964844 -102.19999694824219 0.0  152.19400024414062 -102.27445983886719 0.0  152.1851806640625 -102.07884216308594 0.0  152.2342580159505 -102.18443298339844 -0.17640863007721622
T FR4  152.4536590576172 -102.2752685546875 0.0  152.32359313964844 -102.19999694824219 0.0  152.48439025878906 -102.08013153076172 0.0  152.42054748535156 -102.1851323445638 -0.18279204384559877
T FR4  152.45318603515625 -102.42554473876953 0.0  152.4536590576172 -102.2752685546875 0.0  152.6539306640625 -102.34249114990234 0.0  152.52025858561197 -102.34776814778645 -0.19292549139930207
T FR4  152.32359313964844 -102.5 0.0  152.45318603515625 -102.42554473876953 0.0  152.51028442382812 -102.64214324951172 0.0  152.42902119954425 -102.52256266276041 -0.20270064044409075
T FR4  154.27041625976562 -118.97554016113281 0.0  154.39999389648438 -119.05000305175781 0.0  154.24954223632812 -119.16282653808594 0.0  154.30665079752603 -119.06278991699219 -0.17531691365845967
T FR4  154.26901245117188 -118.82691192626953 0.0  154.27041625976562 -118.97554016113281 0.0  154.0874481201172 -118.90277099609375 0.0  154.20895894368488 -118.90174102783203 -0.18077239718320467
T FR4  154.39999389648438 -118.75 0.0  154.26901245117188 -118.82691192626953 0.0  154.2377166748047 -118.62285614013672 0.0  154.30224100748697 -118.73325602213541 -0.18816300970534452
T FR4  154.52911376953125 -118.82364654541016 0.0  154.39999389648438 -118.75 0.0  154.57421875 -118.58860778808594 0.0  154.50110880533853 -118.72075144449869 -0.2084881594179595
T FR4  154.52911376953125 -118.97635650634766 0.0  154.52911376953125 -118.82364654541016 0.0  154.79229736328125 -118.91056060791016 0.0  154.61684163411456 -118.90352121988931 -0.23371899824074702
T FR4  154.39999389648438 -119.05000305175781 0.0  154.52911376953125 -118.97635650634766 0.0  154.5441131591797 -119.16979217529297 0.0  154.49107360839844 -119.06538391113281 -0.17668850436262565
T FR4  156.96994018554688 -118.9747314453125 0.0  157.10000610351562 -119.05000305175781 0.0  156.94935607910156 -119.18238067626953 0.0  157.00643412272134 -119.06903839111328 -0.18649688854006788
T FR4  156.9704132080078 -118.82445526123047 0.0  156.96994018554688 -118.9747314453125 0.0  156.7731170654297 -118.90010070800781 0.0  156.90449015299478 -118.89976247151692 -0.1906916348274057
T FR4  157.10000610351562 -118.75 0.0  156.9704132080078 -118.82445526123047 0.0  156.940673828125 -118.6167221069336 0.0  157.00369771321613 -118.73039245605469 -0.18901168588174422
T FR4  157.2300567626953 -118.82527160644531 0.0  157.10000610351562 -118.75 0.0  157.26593017578125 -118.62869262695312 0.0  157.19866434733072 -118.73465474446614 -0.18520915712267616
T FR4  157.22958374023438 -118.97554016113281 0.0  157.2300567626953 -118.82527160644531 0.0  157.40023803710938 -118.89990997314453 0.0  157.286626180013 -118.90024058024088 -0.17425365399671944
T FR4  157.10000610351562 -119.05000305175781 0.0  157.22958374023438 -118.97554016113281 0.0  157.2448272705078 -119.13137817382812 0.0  157.19147237141925 -119.05230712890625 -0.15738290662792742
T FR4  159.11993408203125 -117.7247314453125 0.0  159.25 -117.80000305175781 0.0  159.0502471923828 -117.967041015625 0.0  159.1400604248047 -117.8305918375651 -0.22093246708180111
T FR4  159.1204071044922 -117.57445526123047 0.0  159.11993408203125 -117.7247314453125 0.0  158.8650665283203 -117.65897369384766 0.0  159.0351359049479 -117.65272013346353 -0.22748527531941928
T FR4  159.25094604492188 -117.5 0.0  159.1204071044922 -117.57445526123047 0.0  159.068115234375 -117.33837890625 0.0  159.146489461263 -117.47094472249348 -0.21203458669623446
T FR4  159.38006591796875 -117.57527160644531 0.0  159.25094604492188 -117.5 0.0  159.4183349609375 -117.35588073730469 0.0  159.3497823079427 -117.47705078125 -0.19768167195881914
T FR4  159.3795928955078 -117.72554016113281 0.0  159.38006591796875 -117.57527160644531 0.0  159.6036376953125 -117.65852355957031 0.0  159.45443216959634 -117.65311177571614 -0.2075638590327509
T FR4  159.25 -117.80000305175781 0.0  159.3795928955078 -117.72554016113281 0.0  159.42544555664062 -117.99917602539062 0.0  159.35167948404947 -117.84157307942708 -0.23077986719516688
T FR4  160.90509033203125 -120.00971984863281 0.0  161.03372192382812 -120.08255767822266 0.0  160.9028778076172 -120.1812744140625 0.0  160.94723002115884 -120.09118398030598 -0.16109904780160714
T FR4  160.90182495117188 -119.86111450195312 0.0  160.90509033203125 -120.00971984863281 0.0  160.7256317138672 -119.94867706298828 0.0  160.84418233235675 -119.93983713785806 -0.17831645265251814
T FR4  161.0393829345703 -119.78266143798828 0.0  160.90182495117188 -119.86111450195312 0.0  160.86300659179688 -119.65141296386719 0.0  160.9347381591797 -119.76506296793619 -0.1971577733800094
T FR4  161.1651611328125 -119.86029052734375 0.0  161.0393829345703 -119.78266143798828 0.0  161.19882202148438 -119.64532470703125 0.0  161.13445536295572 -119.76275889078775 -0.19194134525119333
T FR4  161.161865234375 -120.01052856445312 0.0  161.1651611328125 -119.86029052734375 0.0  161.34420776367188 -119.95016479492188 0.0  161.22374471028644 -119.94032796223958 -0.18089534005659447
T FR4  161.03372192382812 -120.08255767822266 0.0  161.161865234375 -120.01052856445312 0.0  161.1577606201172 -120.1572265625 0.0  161.11778259277344 -120.08343760172525 -0.14617811882153434
T FR4  159.0699462890625 -114.9747314453125 0.0  159.1999969482422 -115.05000305175781 0.0  159.02081298828125 -115.2009506225586 0.0  159.09691874186197 -115.07522837320963 -0.20534900641710715
T FR4  159.07040405273438 -114.82445526123047 0.0  159.0699462890625 -114.9747314453125 0.0  158.83566284179688 -114.90044403076172 0.0  158.99200439453125 -114.89987691243489 -0.21426336089082265
T FR4  159.1999969482422 -114.75 0.0  159.07040405273438 -114.82445526123047 0.0  158.99923706054688 -114.5844497680664 0.0  159.08987935384113 -114.71963500976562 -0.2200024671520432
T FR4  159.33006286621094 -114.82527160644531 0.0  159.1999969482422 -114.75 0.0  159.36585998535156 -114.57953643798828 0.0  159.29863993326822 -114.71826934814453 -0.21214872203238788
T FR4  159.32958984375 -114.97554016113281 0.0  159.33006286621094 -114.82527160644531 0.0  159.57180786132812 -114.8915023803711 0.0  159.41048685709634 -114.8974380493164 -0.2191017084817984
T FR4  159.1999969482422 -115.05000305175781 0.0  159.32958984375 -114.97554016113281 0.0  159.37081909179688 -115.20391845703125 0.0  159.30013529459634 -115.07648722330728 -0.2038225486241361
T FR4  156.96994018554688 -113.9747314453125 0.0  157.10000610351562 -114.05000305175781 0.0  156.94789123535156 -114.20114135742188 0.0  157.00594584147134 -114.07529195149739 -0.1973969190113357
T FR4  156.9704132080078 -113.82445526123047 0.0  156.96994018554688 -113.9747314453125 0.0  156.75439453125 -113.90642547607422 0.0  156.89824930826822 -113.90187072753906 -0.20247824229509023
T FR4  157.10000610351562 -113.75 0.0  156.9704132080078 -113.82445526123047 0.0  156.93223571777344 -113.59187316894531 0.0  157.00088500976562 -113.72210947672525 -0.20523277253026553
T FR4  157.2300567626953 -113.82527160644531 0.0  157.10000610351562 -113.75 0.0  157.2836456298828 -113.595703125 0.0  157.2045694986979 -113.7236582438151 -0.20861983366040396
T FR4  157.22958374023438 -113.97554016113281 0.0  157.2300567626953 -113.82527160644531 0.0  157.4916534423828 -113.8935317993164 0.0  157.31709798177081 -113.89811452229817 -0.23174216017806706
T FR4  157.10000610351562 -114.05000305175781 0.0  157.22958374023438 -113.97554016113281 0.0  157.30255126953125 -114.208251953125 0.0  157.21071370442706 -114.0779317220052 -0.21678934811743766
T FR4  152.86993408203125 -111.4747314453125 0.0  153.0 -111.55000305175781 0.0  152.83343505859375 -111.70044708251953 0.0  152.901123046875 -111.57506052652994 -0.2011242422497144
T FR4  152.8704071044922 -111.32445526123047 0.0  152.86993408203125 -111.4747314453125 0.0  152.6211700439453 -111.41577911376953 0.0  152.78717041015625 -111.40498860677083 -0.22379076124364441
T FR4  153.0 -111.25 0.0  152.8704071044922 -111.32445526123047 0.0  152.79705810546875 -111.07659912109375 0.0  152.88915506998697 -111.2170181274414 -0.2249578028737087
T FR4  153.13006591796875 -111.32527160644531 0.0  153.0 -111.25 0.0  153.17066955566406 -111.0719223022461 0.0  153.1002451578776 -111.21573130289713 -0.21783861489059606
T FR4  153.1295928955078 -111.47554016113281 0.0  153.13006591796875 -111.32527160644531 0.0  153.34823608398438 -111.38811492919922 0.0  153.20263163248697 -111.39630889892578 -0.20426135882566296
T FR4  153.0 -111.55000305175781 0.0  153.1295928955078 -111.47554016113281 0.0  153.17677307128906 -111.69320678710938 0.0  153.10212198893228 -111.57291666666666 -0.19989440347112883
T FR4  159.0699462890625 -110.17472839355469 0.0  159.1999969482422 -110.25 0.0  159.04010009765625 -110.39456176757812 0.0  159.1033477783203 -110.2730967203776 -0.1958903075691287
T FR4  159.07040405273438 -110.02445983886719 0.0  159.0699462890625 -110.17472839355469 0.0  158.86216735839844 -110.11283111572266 0.0  159.00083923339844 -110.1040064493815 -0.19776137512440983
T FR4  159.1999969482422 -109.94999694824219 0.0  159.07040405273438 -110.02445983886719 0.0  159.02565002441406 -109.82022857666016 0.0  159.0986836751302 -109.93156178792317 -0.19195995000362878
T FR4  159.33006286621094 -110.0252685546875 0.0  159.1999969482422 -109.94999694824219 0.0  159.35557556152344 -109.81111907958984 0.0  159.2952117919922 -109.92879486083984 -0.19149563940542869
T FR4  159.32958984375 -110.17554473876953 0.0  159.33006286621094 -110.0252685546875 0.0  159.5214385986328 -110.09276580810547 0.0  159.39369710286456 -110.09785970052083 -0.18738417347102523
T FR4  159.1999969482422 -110.25 0.0  159.32958984375 -110.17554473876953 0.0  159.38197326660156 -110.39415740966797 0.0  159.30385335286456 -110.27323404947916 -0.20213883052001438
T FR4  162.8342742919922 -114.173095703125 0.0  162.9638671875 -114.24755096435547 0.0  162.78854370117188 -114.4586410522461 0.0  162.8622283935547 -114.29309590657552 -0.23768213775241764
T FR4  162.83334350585938 -114.02364349365234 0.0  162.8342742919922 -114.173095703125 0.0  162.59149169921875 -114.12262725830078 0.0  162.75303649902344 -114.10645548502603 -0.2195838338781481
T FR4  162.9619903564453 -113.94756317138672 0.0  162.83334350585938 -114.02364349365234 0.0  162.7692413330078 -113.81210327148438 0.0  162.8548583984375 -113.92776997884114 -0.20202891940675613
T FR4  163.09249877929688 -114.0203857421875 0.0  162.9619903564453 -113.94756317138672 0.0  163.11102294921875 -113.77503204345703 0.0  163.05517069498697 -113.91432698567708 -0.20782969861074727
T FR4  163.09530639648438 -114.16981506347656 0.0  163.09249877929688 -114.0203857421875 0.0  163.33729553222656 -114.05670166015625 0.0  163.17503356933594 -114.0823008219401 -0.2213506954651543
T FR4  162.9638671875 -114.24755096435547 0.0  163.09530639648438 -114.16981506347656 0.0  163.20816040039062 -114.43708038330078 0.0  163.089111328125 -114.2848154703776 -0.25067152683888194
T FR4  172.12608337402344 -117.3980712890625 0.0  172.32899475097656 -117.05000305175781 0.0  172.6606903076172 -117.51335144042969 0.0  172.37192281087238 -117.32047526041666 -0.5065422197589494
T FR4  171.72755432128906 -117.39556884765625 0.0  172.12608337402344 -117.3980712890625 0.0  171.9059600830078 -118.02711486816406 0.0  171.91986592610675 -117.60691833496094 -0.5737480488188919
T FR4  171.5290069580078 -117.05000305175781 0.0  171.72755432128906 -117.39556884765625 0.0  171.1512451171875 -117.49176025390625 0.0  171.46926879882812 -117.31244405110677 -0.5213588697319457
T FR4  171.5290069580078 -116.3499984741211 0.0  171.5290069580078 -117.05000305175781 0.0  171.05088806152344 -116.65946197509766 0.0  171.369633992513 -116.68648783365884 -0.6289615212666749
T FR4  171.74293518066406 -115.99591064453125 0.0  171.5290069580078 -116.3499984741211 0.0  171.19163513183594 -115.6953125 0.0  171.48785909016925 -116.01374053955078 -0.592707226300067
T FR4  172.13584899902344 -116.00763702392578 0.0  171.74293518066406 -115.99591064453125 0.0  171.7801971435547 -115.49541473388672 0.0  171.88632710774738 -115.83298746744791 -0.5061853903144978
T FR4  172.32899475097656 -116.3499984741211 0.0  172.13584899902344 -116.00763702392578 0.0  172.60140991210938 -115.83445739746094 0.0  172.35541788736978 -116.06403096516927 -0.4909674505126593
T FR4  172.32899475097656 -117.05000305175781 0.0  172.32899475097656 -116.3499984741211 0.0  172.9586639404297 -116.6437759399414 0.0  172.53888448079425 -116.68125915527344 -0.714723315328999
T FR4  174.70875549316406 -118.49890899658203 0.0  175.22900390625 -118.80000305175781 0.0  174.61380004882812 -119.17341613769531 0.0  174.85051981608072 -118.82410939534505 -0.6673052184594784
T FR4  174.7106475830078 -117.8978271484375 0.0  174.70875549316406 -118.49890899658203 0.0  174.04649353027344 -118.2125244140625 0.0  174.48863220214844 -118.20308685302734 -0.6858515394548724
T FR4  175.22900390625 -117.5999984741211 0.0  174.7106475830078 -117.8978271484375 0.0  174.5808868408203 -117.14576721191406 0.0  174.84017944335938 -117.54786427815755 -0.7174801854233602
T FR4  175.74923706054688 -117.90109252929688 0.0  175.22900390625 -117.5999984741211 0.0  175.8585205078125 -117.19894409179688 0.0  175.61225382486978 -117.56667836507161 -0.6860332807819519
T FR4  175.7473602294922 -118.5021743774414 0.0  175.74923706054688 -117.90109252929688 0.0  176.4163818359375 -118.1420669555664 0.0  175.9709930419922 -118.18177795410156 -0.6900656981716212
T FR4  175.22900390625 -118.80000305175781 0.0  175.7473602294922 -118.5021743774414 0.0  175.8646697998047 -119.17867279052734 0.0  175.61367797851562 -118.82695007324219 -0.6747754346901855
T FR4  178.72608947753906 -117.3980712890625 0.0  178.9290008544922 -117.05000305175781 0.0  179.23683166503906 -117.50389099121094 0.0  178.96397399902344 -117.31732177734375 -0.49097106666513374
T FR4  178.32754516601562 -117.39556884765625 0.0  178.72608947753906 -117.3980712890625 0.0  178.47393798828125 -117.78498077392578 0.0  178.50919087727863 -117.52620697021484 -0.4254645836383008
T FR4  178.12899780273438 -117.05000305175781 0.0  178.32754516601562 -117.39556884765625 0.0  177.7606201171875 -117.49234008789062 0.0  178.0723876953125 -117.31263732910156 -0.5164368816900956
T FR4  178.12899780273438 -116.3499984741211 0.0  178.12899780273438 -117.05000305175781 0.0  177.6627197265625 -116.66239929199219 0.0  177.97357177734375 -116.68746693929036 -0.6225349109386329
T FR4  178.3429412841797 -115.99591064453125 0.0  178.12899780273438 -116.3499984741211 0.0  177.8136749267578 -115.81452941894531 0.0  178.09520467122394 -116.05347951253255 -0.5315335749349726
T FR4  178.73585510253906 -116.00763702392578 0.0  178.3429412841797 -115.99591064453125 0.0  178.6368865966797 -115.52819061279297 0.0  178.57189432779947 -115.84391276041666 -0.47835382966255646
T FR4  171.82945251464844 -99.3188247680664 0.0  173.8992919921875 -100.63011932373047 0.0  172.5718536376953 -101.02538299560547 0.0  172.76686604817706 -100.32477569580078 -1.8987784752339893
T FR4  178.9290008544922 -117.05000305175781 0.0  178.9290008544922 -116.3499984741211 0.0  179.8245849609375 -116.7623519897461 0.0  179.22752888997394 -116.72078450520833 -0.875534877691762
T FR4  167.66993713378906 -114.27472686767578 0.0  167.8000030517578 -114.3499984741211 0.0  167.6741943359375 -114.48414611816406 0.0  167.71471150716144 -114.36962381998697 -0.1812167480709381
T FR4  167.67041015625 -114.12445831298828 0.0  167.66993713378906 -114.27472686767578 0.0  167.4716339111328 -114.2402572631836 0.0  167.60399373372394 -114.21314748128255 -0.19386417639255937
T FR4  167.8000030517578 -114.05000305175781 0.0  167.67041015625 -114.12445831298828 0.0  167.59716796875 -113.9229965209961 0.0  167.68919372558594 -114.03248596191406 -0.20104613266428872
T FR4  167.9300537109375 -114.12527465820312 0.0  167.8000030517578 -114.05000305175781 0.0  167.94483947753906 -113.8906021118164 0.0  167.89163208007812 -114.02195994059244 -0.2002585396297417
T FR4  167.9300537109375 -114.27472686767578 0.0  167.9300537109375 -114.12527465820312 0.0  168.12989807128906 -114.17420959472656 0.0  167.99666849772134 -114.19140370686848 -0.19296671494828674
T FR4  167.8000030517578 -114.3499984741211 0.0  167.9300537109375 -114.27472686767578 0.0  167.97837829589844 -114.45555114746094 0.0  167.9028116861979 -114.36009216308594 -0.1815663427864285
T FR4  170.64088439941406 -114.05635833740234 0.0  170.77000427246094 -114.12999725341797 0.0  170.6080780029297 -114.26420593261719 0.0  170.67298889160156 -114.15018717447916 -0.1897925379497145
T FR4  170.6385498046875 -113.9077377319336 0.0  170.64088439941406 -114.05635833740234 0.0  170.44326782226562 -113.97691345214844 0.0  170.57423400878906 -113.98033650716145 -0.1895996556998291
T FR4  170.77000427246094 -113.83000183105469 0.0  170.6385498046875 -113.9077377319336 0.0  170.61427307128906 -113.67032623291016 0.0  170.67427571614581 -113.80268859863281 -0.2048041317595408
T FR4  170.8986358642578 -113.90283203125 0.0  170.77000427246094 -113.83000183105469 0.0  170.9537811279297 -113.70519256591797 0.0  170.87414042154947 -113.81267547607422 -0.19171954547136014
T FR4  170.9019012451172 -114.05143737792969 0.0  170.8986358642578 -113.90283203125 0.0  171.0810089111328 -113.9820556640625 0.0  170.96051534016925 -113.97877502441406 -0.1798517034547652
T FR4  170.77000427246094 -114.12999725341797 0.0  170.9019012451172 -114.05143737792969 0.0  170.93536376953125 -114.25418090820312 0.0  170.86908976236978 -114.14520517985025 -0.18860150760801744
T FR4  174.71255493164062 -111.50542449951172 0.0  175.22900390625 -111.80000305175781 0.0  174.70762634277344 -112.4389419555664 0.0  174.883061726888 -111.91478983561197 -0.7842513084974817
T FR4  174.72039794921875 -110.8816909790039 0.0  174.71255493164062 -111.50542449951172 0.0  174.03802490234375 -111.33255004882812 0.0  174.49032592773438 -111.23988850911458 -0.712660241448273
T FR4  175.25161743164062 -110.60042572021484 0.0  174.72039794921875 -110.8816909790039 0.0  174.66217041015625 -110.25614166259766 0.0  174.87806193033853 -110.5794194539388 -0.6373220450469125
T FR4  175.75479125976562 -110.91094970703125 0.0  175.25161743164062 -110.60042572021484 0.0  175.82252502441406 -110.25479125976562 0.0  175.6096445719401 -110.5887222290039 -0.639434866978716
T FR4  175.7473602294922 -111.5021743774414 0.0  175.75479125976562 -110.91094970703125 0.0  176.49061584472656 -111.12908172607422 0.0  175.99758911132812 -111.18073527018228 -0.7301295100696096
T FR4  175.22900390625 -111.80000305175781 0.0  175.7473602294922 -111.5021743774414 0.0  175.9942169189453 -112.2918472290039 0.0  175.6568603515625 -111.8646748860677 -0.7782775625736243
T FR4  155.7699432373047 -108.5747299194336 0.0  155.89999389648438 -108.6500015258789 0.0  155.72694396972656 -108.79934692382812 0.0  155.79896036783853 -108.67469278971353 -0.2025140307452177
T FR4  155.77088928222656 -108.42364501953125 0.0  155.7699432373047 -108.5747299194336 0.0  155.5567169189453 -108.49935913085938 0.0  155.69918314615884 -108.4992446899414 -0.20146827903718165
T FR4  155.90093994140625 -108.35000610351562 0.0  155.77088928222656 -108.42364501953125 0.0  155.7283172607422 -108.18716430664062 0.0  155.800048828125 -108.32027180989583 -0.20901467442456453
T FR4  156.03053283691406 -108.42609405517578 0.0  155.90093994140625 -108.35000610351562 0.0  156.10604858398438 -108.19365692138672 0.0  156.01250712076822 -108.32325236002603 -0.2175265042367882
T FR4  156.0295867919922 -108.57554626464844 0.0  156.03053283691406 -108.42609405517578 0.0  156.279052734375 -108.53802490234375 0.0  156.11305745442706 -108.51322174072266 -0.22476340601265507
T FR4  155.89999389648438 -108.6500015258789 0.0  156.0295867919922 -108.57554626464844 0.0  156.05899047851562 -108.80279541015625 0.0  155.99619038899738 -108.67611440022786 -0.19970499882463566
T FR4  157.75624084472656 -104.3331069946289 0.0  157.8885955810547 -104.4124984741211 0.0  157.73312377929688 -104.57180786132812 0.0  157.7926534016927 -104.4391377766927 -0.20558597610639504
T FR4  157.7609405517578 -104.18372344970703 0.0  157.75624084472656 -104.3331069946289 0.0  157.52511596679688 -104.27961730957031 0.0  157.6807657877604 -104.26548258463541 -0.213755689812973
T FR4  157.89141845703125 -104.1125259399414 0.0  157.7609405517578 -104.18372344970703 0.0  157.6997833251953 -103.96405029296875 0.0  157.78404744466144 -104.08676656087239 -0.20636324709997292
T FR4  158.0195770263672 -104.18941497802734 0.0  157.89141845703125 -104.1125259399414 0.0  158.04000854492188 -103.95634460449219 0.0  157.9836680094401 -104.08609517415364 -0.19966370970479752
T FR4  158.0177001953125 -104.33885955810547 0.0  158.0195770263672 -104.18941497802734 0.0  158.2332305908203 -104.23252868652344 0.0  158.09016927083331 -104.25360107421875 -0.20258294021927356
T FR4  157.8885955810547 -104.4124984741211 0.0  158.0177001953125 -104.33885955810547 0.0  158.08961486816406 -104.55146026611328 0.0  157.9986368815104 -104.43427276611328 -0.20581290650527098
T FR4  157.67088317871094 -99.17635345458984 0.0  157.8000030517578 -99.25 0.0  157.61138916015625 -99.41326141357422 0.0  157.694091796875 -99.27987162272134 -0.21412294601372447
T FR4  157.66900634765625 -99.02690887451172 0.0  157.67088317871094 -99.17635345458984 0.0  157.4276123046875 -99.0858383178711 0.0  157.58916727701822 -99.09636688232422 -0.21916791564116142
T FR4  157.79623413085938 -98.9500503540039 0.0  157.66900634765625 -99.02690887451172 0.0  157.64608764648438 -98.8072509765625 0.0  157.70377604166666 -98.92807006835938 -0.1922334774257336
T FR4  157.92715454101562 -99.02042388916016 0.0  157.79623413085938 -98.9500503540039 0.0  157.954345703125 -98.82514190673828 0.0  157.892578125 -98.93187204996744 -0.18243319065337568
T FR4  157.9332275390625 -99.16893768310547 0.0  157.92715454101562 -99.02042388916016 0.0  158.13912963867188 -99.09430694580078 0.0  157.99983723958331 -99.0945561726888 -0.19737665321116346
T FR4  157.8000030517578 -99.25 0.0  157.9332275390625 -99.16893768310547 0.0  157.97373962402344 -99.4063491821289 0.0  157.9023234049479 -99.27509562174478 -0.21017364701233288
T FR4  172.56838989257812 -109.4023208618164 0.0  172.7790069580078 -109.05000305175781 0.0  173.17172241210938 -109.52631378173828 0.0  172.83970642089844 -109.32621256510416 -0.5479149430346459
T FR4  172.1732177734375 -109.39301300048828 0.0  172.56838989257812 -109.4023208618164 0.0  172.3691864013672 -110.03146362304688 0.0  172.3702646891276 -109.60893249511719 -0.5743524746343862
T FR4  171.97900390625 -109.05000305175781 0.0  172.1732177734375 -109.39301300048828 0.0  171.544189453125 -109.6275863647461 0.0  171.8988037109375 -109.35686747233072 -0.5961585209131833
T FR4  171.97900390625 -108.3499984741211 0.0  171.97900390625 -109.05000305175781 0.0  171.2942657470703 -108.71692657470703 0.0  171.7507578531901 -108.70564270019531 -0.7461029938874572
T FR4  172.18299865722656 -108.00131225585938 0.0  171.97900390625 -108.3499984741211 0.0  171.7064666748047 -107.91500091552734 0.0  171.9561564127604 -108.0887705485026 -0.4671941811386336
T FR4  172.58152770996094 -108.00506591796875 0.0  172.18299865722656 -108.00131225585938 0.0  172.36343383789062 -107.5756607055664 0.0  172.37598673502603 -107.86067962646484 -0.44749284605352974
T FR4  172.7790069580078 -108.3499984741211 0.0  172.58152770996094 -108.00506591796875 0.0  173.0408935546875 -107.91246795654297 0.0  172.80047607421875 -108.08917744954427 -0.45866250718887797
T FR4  172.7790069580078 -109.05000305175781 0.0  172.7790069580078 -108.3499984741211 0.0  173.22181701660156 -108.6700668334961 0.0  172.92661031087238 -108.69002278645833 -0.6099480944256818
T FR4  166.06765747070312 -105.37060546875 0.0  166.1999969482422 -105.44999694824219 0.0  166.03929138183594 -105.57827758789062 0.0  166.10231526692706 -105.46629333496094 -0.18985118282244304
T FR4  166.0713653564453 -105.22283172607422 0.0  166.06765747070312 -105.37060546875 0.0  165.85638427734375 -105.30416870117188 0.0  165.99846903483072 -105.29920196533203 -0.1997154757425915
T FR4  166.20753479003906 -105.15019226074219 0.0  166.0713653564453 -105.22283172607422 0.0  166.02557373046875 -105.00187683105469 0.0  166.1014912923177 -105.12496693929036 -0.20491074743175386
T FR4  166.33233642578125 -105.2293930053711 0.0  166.20753479003906 -105.15019226074219 0.0  166.3740997314453 -104.99365997314453 0.0  166.30465698242188 -105.1244150797526 -0.20526322101088698
T FR4  166.32814025878906 -105.37797546386719 0.0  166.33233642578125 -105.2293930053711 0.0  166.55377197265625 -105.29804992675781 0.0  166.40474955240884 -105.30180613199869 -0.20661540781840768
T FR4  166.1999969482422 -105.44999694824219 0.0  166.32814025878906 -105.37797546386719 0.0  166.3621063232422 -105.59078216552734 0.0  166.29674784342447 -105.47291819254556 -0.19240172542999304
T FR4  167.66993713378906 -105.37472534179688 0.0  167.8000030517578 -105.44999694824219 0.0  167.66513061523438 -105.5849380493164 0.0  167.71169026692706 -105.46988677978516 -0.18377697020526793
T FR4  167.67041015625 -105.22445678710938 0.0  167.66993713378906 -105.37472534179688 0.0  167.48890686035156 -105.32646942138672 0.0  167.60975138346353 -105.30855051676431 -0.1819425031526536
T FR4  167.8009490966797 -105.1500015258789 0.0  167.67041015625 -105.22445678710938 0.0  167.6263427734375 -105.04582977294922 0.0  167.69923400878906 -105.14009602864583 -0.1791941481423945
T FR4  167.9300537109375 -105.22527313232422 0.0  167.8009490966797 -105.1500015258789 0.0  167.9357147216797 -105.01782989501953 0.0  167.88890584309894 -105.13103485107422 -0.1819091829334805
T FR4  167.92959594726562 -105.37554168701172 0.0  167.9300537109375 -105.22527313232422 0.0  168.1395263671875 -105.26888275146484 0.0  167.99972534179688 -105.28989919026692 -0.1999016417755288
T FR4  167.8000030517578 -105.44999694824219 0.0  167.92959594726562 -105.37554168701172 0.0  167.98934936523438 -105.57254028320312 0.0  167.90631612141925 -105.46602630615234 -0.19362048265301732
T FR4  171.16993713378906 -105.5747299194336 0.0  171.3000030517578 -105.6500015258789 0.0  171.12762451171875 -105.77237701416016 0.0  171.19918823242188 -105.66570281982422 -0.18793406267967452
T FR4  171.17041015625 -105.42445373535156 0.0  171.16993713378906 -105.5747299194336 0.0  170.99130249023438 -105.4963150024414 0.0  171.1105499267578 -105.49849955240884 -0.17945023168198374
T FR4  171.3009490966797 -105.35000610351562 0.0  171.17041015625 -105.42445373535156 0.0  171.14308166503906 -105.21749114990234 0.0  171.2048136393229 -105.33065032958984 -0.18838249867619905
T FR4  171.4300537109375 -105.4252700805664 0.0  171.3009490966797 -105.35000610351562 0.0  171.48361206054688 -105.20661163330078 0.0  171.40487162272134 -105.3272959391276 -0.2022622856990409
T FR4  171.42959594726562 -105.57554626464844 0.0  171.4300537109375 -105.4252700805664 0.0  171.66864013671875 -105.51018524169922 0.0  171.50942993164062 -105.50366719563802 -0.21711426329840097
T FR4  171.3000030517578 -105.6500015258789 0.0  171.42959594726562 -105.57554626464844 0.0  171.46949768066406 -105.81231689453125 0.0  171.39969889322916 -105.67928822835286 -0.20808267486039747
T FR4  175.9258270263672 -107.70072937011719 0.0  175.57899475097656 -107.5 0.0  176.01939392089844 -107.27616119384766 0.0  175.84140523274738 -107.49229685465494 -0.4431686930112424
T FR4  175.92520141601562 -108.1003646850586 0.0  175.9258270263672 -107.70072937011719 0.0  176.46109008789062 -107.89952087402344 0.0  176.10403951009113 -107.90020497639973 -0.5143035431468649
T FR4  175.57899475097656 -108.30000305175781 0.0  175.92520141601562 -108.1003646850586 0.0  176.04623413085938 -108.65339660644531 0.0  175.8501434326172 -108.35125478108723 -0.5171988838418319
T FR4  174.87899780273438 -108.30000305175781 0.0  175.57899475097656 -108.30000305175781 0.0  175.0301971435547 -109.00634765625 0.0  175.16272989908853 -108.5354512532552 -0.7722756740463045
T FR4  174.53216552734375 -108.09927368164062 0.0  174.87899780273438 -108.30000305175781 0.0  174.38973999023438 -108.40583801269531 0.0  174.60030110677081 -108.26837158203125 -0.4131126651918035
T FR4  174.53280639648438 -107.69963836669922 0.0  174.53216552734375 -108.09927368164062 0.0  174.12551879882812 -107.89746856689453 0.0  174.3968302408854 -107.89879353841145 -0.435465019114353
T FR4  174.87899780273438 -107.5 0.0  174.53280639648438 -107.69963836669922 0.0  174.39730834960938 -107.21983337402344 0.0  174.60303751627603 -107.47315724690755 -0.4851472588119863
T FR4  175.57899475097656 -107.5 0.0  174.87899780273438 -107.5 0.0  175.23280334472656 -106.81391906738281 0.0  175.23026529947916 -107.27130635579427 -0.7468030677319134
T FR4  178.2683868408203 -109.4023208618164 0.0  178.47900390625 -109.05000305175781 0.0  178.9000244140625 -109.53302001953125 0.0  178.54913838704425 -109.32844797770181 -0.5654142084368363
T FR4  177.87322998046875 -109.39301300048828 0.0  178.2683868408203 -109.4023208618164 0.0  177.9347686767578 -109.84124755859375 0.0  178.02546183268228 -109.54552714029947 -0.46634309327396734
T FR4  177.6790008544922 -109.05000305175781 0.0  177.87322998046875 -109.39301300048828 0.0  177.4062042236328 -109.36315155029297 0.0  177.6528116861979 -109.26872253417969 -0.4258234099827562
T FR4  177.6790008544922 -108.3499984741211 0.0  177.6790008544922 -109.05000305175781 0.0  177.21836853027344 -108.64071655273438 0.0  177.52545674641925 -108.68023935953775 -0.6203005314700882
T FR4  177.8830108642578 -108.00131225585938 0.0  177.6790008544922 -108.3499984741211 0.0  177.50404357910156 -107.94705200195312 0.0  177.68868509928384 -108.09945424397786 -0.4087017186666875
T FR4  178.2815399169922 -108.00506591796875 0.0  177.8830108642578 -108.00131225585938 0.0  178.0104522705078 -107.54491424560547 0.0  178.05833435058594 -107.85043080647786 -0.4688237365201758
T FR4  178.47900390625 -108.3499984741211 0.0  178.2815399169922 -108.00506591796875 0.0  178.7743377685547 -107.60797882080078 0.0  178.51162719726562 -107.98768107096353 -0.6096537050652261
T FR4  178.47900390625 -109.05000305175781 0.0  178.47900390625 -108.3499984741211 0.0  178.89483642578125 -108.5942153930664 0.0  178.61761474609375 -108.66473897298177 -0.5997412043259936
T FR4  178.7699432373047 -106.43473052978516 0.0  178.89999389648438 -106.51000213623047 0.0  178.77606201171875 -106.66669464111328 0.0  178.8153330485026 -106.53714243570963 -0.19402895795896669
T FR4  178.77041625976562 -106.28445434570312 0.0  178.7699432373047 -106.43473052978516 0.0  178.55422973632812 -106.39531707763672 0.0  178.6981964111328 -106.37150065104166 -0.2041721933465899
T FR4  178.90093994140625 -106.21000671386719 0.0  178.77041625976562 -106.28445434570312 0.0  178.72988891601562 -106.0545425415039 0.0  178.8004150390625 -106.18300120035806 -0.20495438795270235
T FR4  179.03005981445312 -106.28527069091797 0.0  178.90093994140625 -106.21000671386719 0.0  179.06710815429688 -106.09827423095703 0.0  178.9993693033854 -106.19785054524739 -0.18010849431202802
T FR4  179.0295867919922 -106.435546875 0.0  179.03005981445312 -106.28527069091797 0.0  179.19729614257812 -106.36190795898438 0.0  179.0856475830078 -106.36090850830078 -0.17246701633052045
T FR4  178.89999389648438 -106.51000213623047 0.0  179.0295867919922 -106.435546875 0.0  179.06150817871094 -106.6026382446289 0.0  178.99702962239581 -106.51606241861978 -0.16858873006881736
T FR4  166.1304168701172 -99.16554260253906 0.0  166.25999450683594 -99.23999786376953 0.0  166.0970916748047 -99.41363525390625 0.0  166.1625010172526 -99.27305857340494 -0.21261907724419404
T FR4  166.12901306152344 -99.01691436767578 0.0  166.1304168701172 -99.16554260253906 0.0  165.8671112060547 -99.118896484375 0.0  166.04218037923175 -99.10045115152994 -0.23236574659694967
T FR4  166.2562255859375 -98.94004821777344 0.0  166.12901306152344 -99.01691436767578 0.0  166.0595703125 -98.7826919555664 0.0  166.1482696533203 -98.91321818033853 -0.21493113275492873
T FR4  166.38714599609375 -99.01042175292969 0.0  166.2562255859375 -98.94004821777344 0.0  166.42242431640625 -98.76221466064453 0.0  166.35526529947916 -98.90422821044922 -0.21424801756401704
T FR4  166.3886260986328 -99.16716766357422 0.0  166.38714599609375 -99.01042175292969 0.0  166.62522888183594 -99.0692367553711 0.0  166.46700032552081 -99.082275390625 -0.21935397579514038
T FR4  166.25999450683594 -99.23999786376953 0.0  166.3886260986328 -99.16716766357422 0.0  166.45602416992188 -99.39429473876953 0.0  166.3682149251302 -99.26715342203775 -0.2114014451543458
T FR4  173.36900329589844 -103.17308807373047 0.0  173.5 -103.25 0.0  173.33604431152344 -103.39518737792969 0.0  173.40168253580728 -103.27275848388672 -0.19847921004185407
T FR4  173.3708953857422 -103.02364349365234 0.0  173.36900329589844 -103.17308807373047 0.0  173.1554718017578 -103.104248046875 0.0  173.29845682779947 -103.10032653808594 -0.20127333335875083
T FR4  173.50094604492188 -102.95000457763672 0.0  173.3708953857422 -103.02364349365234 0.0  173.3279571533203 -102.81796264648438 0.0  173.39993286132812 -102.93053690592447 -0.192396968535684
T FR4  173.63006591796875 -103.0252685546875 0.0  173.50094604492188 -102.95000457763672 0.0  173.6509552001953 -102.81141662597656 0.0  173.59398905436197 -102.92889658610025 -0.1895176099281307
T FR4  173.63006591796875 -103.17472839355469 0.0  173.63006591796875 -103.0252685546875 0.0  173.81103515625 -103.08506774902344 0.0  173.69038899739581 -103.0950215657552 -0.1806719192234615
T FR4  173.5 -103.25 0.0  173.63006591796875 -103.17472839355469 0.0  173.6738739013672 -103.36783599853516 0.0  173.60131327311197 -103.26418813069661 -0.1861107296258889
T FR4  176.46994018554688 -103.87472534179688 0.0  176.60000610351562 -103.94999694824219 0.0  176.41549682617188 -104.09521484375 0.0  176.49514770507812 -103.97331237792969 -0.2040632571890929
T FR4  176.46994018554688 -103.72527313232422 0.0  176.46994018554688 -103.87472534179688 0.0  176.27066040039062 -103.8033218383789 0.0  176.40351359049478 -103.80110677083333 -0.19171893793383257
T FR4  176.59906005859375 -103.6500015258789 0.0  176.46994018554688 -103.72527313232422 0.0  176.42572021484375 -103.5308609008789 0.0  176.49824015299478 -103.635378519694 -0.1863906478177342
T FR4  176.72958374023438 -103.72445678710938 0.0  176.59906005859375 -103.6500015258789 0.0  176.7413787841797 -103.5234146118164 0.0  176.69000752766925 -103.63262430826822 -0.18070816342048068
T FR4  176.73052978515625 -103.87390899658203 0.0  176.72958374023438 -103.72445678710938 0.0  176.91297912597656 -103.79399108886719 0.0  176.79103088378906 -103.79745229085286 -0.18159166538901791
T FR4  176.60000610351562 -103.94999694824219 0.0  176.73052978515625 -103.87390899658203 0.0  176.7601776123047 -104.09896850585938 0.0  176.6969045003255 -103.97429148356119 -0.1989422020406005
T FR4  176.5699462890625 -99.77472686767578 0.0  176.6999969482422 -99.8499984741211 0.0  176.52618408203125 -99.96849060058594 0.0  176.5987091064453 -99.8644053141276 -0.18642239270595598
T FR4  176.5699462890625 -99.62527465820312 0.0  176.5699462890625 -99.77472686767578 0.0  176.44264221191406 -99.69617462158203 0.0  176.5275115966797 -99.69872538248697 -0.14825228526523873
T FR4  176.6990509033203 -99.55000305175781 0.0  176.5699462890625 -99.62527465820312 0.0  176.5331573486328 -99.4535903930664 0.0  176.60071818033853 -99.54295603434244 -0.17230060560938024
T FR4  176.82911682128906 -99.62364196777344 0.0  176.6990509033203 -99.55000305175781 0.0  176.8429412841797 -99.42124938964844 0.0  176.79036966959634 -99.53163146972656 -0.18180488764470423
T FR4  176.83099365234375 -99.77308654785156 0.0  176.82911682128906 -99.62364196777344 0.0  177.02227783203125 -99.68232727050781 0.0  176.89412943522134 -99.6930185953776 -0.18768633085135678
T FR4  176.6999969482422 -99.8499984741211 0.0  176.83099365234375 -99.77308654785156 0.0  176.86871337890625 -99.98553466796875 0.0  176.79990132649738 -99.86953989664713 -0.19469726337756002
T FR4  127.37006378173828 -98.47652435302734 0.0  127.66500091552734 -98.66500091552734 0.0  127.28059387207031 -98.8133544921875 0.0  127.43855285644531 -98.65162658691406 -0.3701890583683402
T FR4  127.39505767822266 -98.15901184082031 0.0  127.37006378173828 -98.47652435302734 0.0  127.03348541259766 -98.2231674194336 0.0  127.26620229085286 -98.28623453776041 -0.3689973700638993
T FR4  127.67724609375 -98.01522827148438 0.0  127.39505767822266 -98.15901184082031 0.0  127.43514251708984 -97.8078384399414 0.0  127.50248209635416 -97.99402618408203 -0.3296493695248152
T FR4  127.94880676269531 -98.181640625 0.0  127.67724609375 -98.01522827148438 0.0  127.98377227783203 -97.84086608886719 0.0  127.86994171142578 -98.01257832845052 -0.3379017422318824
T FR4  127.94880676269531 -98.49835968017578 0.0  127.94880676269531 -98.181640625 0.0  128.30137634277344 -98.3561019897461 0.0  128.0663299560547 -98.34536743164062 -0.3634264270535931
T FR4  127.66500091552734 -98.66500091552734 0.0  127.94880676269531 -98.49835968017578 0.0  127.943115234375 -98.97362518310547 0.0  127.85230763753255 -98.71232859293619 -0.4066198266978461
T FR4  128.6542205810547 -98.50367736816406 0.0  128.93499755859375 -98.66500091552734 0.0  128.66880798339844 -98.92259216308594 0.0  128.75267537434894 -98.69709014892578 -0.3711366832172895
T FR4  128.64825439453125 -98.18701934814453 0.0  128.6542205810547 -98.50367736816406 0.0  128.30137634277344 -98.3561019897461 0.0  128.53461710611978 -98.34893290201822 -0.3616898633220221
T FR4  128.9125518798828 -98.01577758789062 0.0  128.64825439453125 -98.18701934814453 0.0  128.5963592529297 -97.86714172363281 0.0  128.71905517578125 -98.02331288655598 -0.3294564193935316
T FR4  129.19793701171875 -98.14897155761719 0.0  128.9125518798828 -98.01577758789062 0.0  129.25881958007812 -97.6868896484375 0.0  129.12310282389322 -97.95054626464844 -0.41952592531569594
T FR4  129.23641967773438 -98.46154022216797 0.0  129.19793701171875 -98.14897155761719 0.0  129.64340209960938 -98.26654052734375 0.0  129.3592529296875 -98.29235076904297 -0.4089779503967536
T FR4  128.93499755859375 -98.66500091552734 0.0  129.23641967773438 -98.46154022216797 0.0  129.3552703857422 -98.86575317382812 0.0  129.1755625406901 -98.66409810384114 -0.4169153025085821
T FR4  130.9899444580078 -98.45472717285156 0.0  131.1199951171875 -98.52999877929688 0.0  130.9817352294922 -98.66764068603516 0.0  131.03055826822916 -98.55078887939453 -0.18614243288232954
T FR4  130.9899444580078 -98.3052749633789 0.0  130.9899444580078 -98.45472717285156 0.0  130.79725646972656 -98.4114761352539 0.0  130.92571512858072 -98.39049275716145 -0.18898378339404318
T FR4  131.12094116210938 -98.2300033569336 0.0  130.9899444580078 -98.3052749633789 0.0  130.92787170410156 -98.12142181396484 0.0  131.0129191080729 -98.21890004475911 -0.18887983941130967
T FR4  131.2505340576172 -98.30609130859375 0.0  131.12094116210938 -98.2300033569336 0.0  131.2511444091797 -98.08904266357422 0.0  131.20753987630206 -98.20837910970052 -0.18640697085840555
T FR4  131.2495880126953 -98.4555435180664 0.0  131.2505340576172 -98.30609130859375 0.0  131.43353271484375 -98.35311889648438 0.0  131.31121826171875 -98.3715845743815 -0.1829794677595764
T FR4  131.1199951171875 -98.52999877929688 0.0  131.2495880126953 -98.4555435180664 0.0  131.29415893554688 -98.6362075805664 0.0  131.22124735514322 -98.54058329264322 -0.17984433841431735
T FR4  138.07040405273438 -93.27554321289062 0.0  138.1999969482422 -93.3499984741211 0.0  138.0514678955078 -93.50337982177734 0.0  138.10728963216144 -93.37630716959634 -0.19719711357010772
T FR4  138.0690155029297 -93.12691497802734 0.0  138.07040405273438 -93.27554321289062 0.0  137.81643676757812 -93.23280334472656 0.0  137.98528544108072 -93.21175384521484 -0.22668325597395067
T FR4  138.20188903808594 -93.05001068115234 0.0  138.0690155029297 -93.12691497802734 0.0  137.99685668945312 -92.89833068847656 0.0  138.08925374348956 -93.02508544921875 -0.21608892349063058
T FR4  138.33006286621094 -93.12527465820312 0.0  138.20188903808594 -93.05001068115234 0.0  138.37159729003906 -92.82886505126953 0.0  138.30118306477863 -93.00138346354166 -0.24223391128076596
T FR4  138.3305206298828 -93.27391052246094 0.0  138.33006286621094 -93.12527465820312 0.0  138.60244750976562 -93.16585540771484 0.0  138.42101033528644 -93.18834686279297 -0.23887891141601206
T FR4  138.1999969482422 -93.3499984741211 0.0  138.3305206298828 -93.27391052246094 0.0  138.39341735839844 -93.49283599853516 0.0  138.30797831217447 -93.37224833170572 -0.2064363209439347
T FR4  140.9171905517578 -88.19513702392578 0.0  141.1999969482422 -88.36000061035156 0.0  140.86448669433594 -88.74874114990234 0.0  140.99389139811197 -88.43462626139322 -0.46565446068802013
T FR4  140.9171905517578 -87.87486267089844 0.0  140.9171905517578 -88.19513702392578 0.0  140.52757263183594 -88.10396575927734 0.0  140.78731791178384 -88.05798848470052 -0.39080070998684047
T FR4  141.19183349609375 -87.7101058959961 0.0  140.9171905517578 -87.87486267089844 0.0  140.86724853515625 -87.52873992919922 0.0  140.9920908610026 -87.70456949869791 -0.34726560266642154
T FR4  141.47549438476562 -87.86258697509766 0.0  141.19183349609375 -87.7101058959961 0.0  141.5009765625 -87.49855041503906 0.0  141.38943481445312 -87.69041442871094 -0.35385795913093016
T FR4  141.4895782470703 -88.18254852294922 0.0  141.47549438476562 -87.86258697509766 0.0  141.94097900390625 -87.98699188232422 0.0  141.63535054524738 -88.01070912679036 -0.4313445067860698
T FR4  141.1999969482422 -88.36000061035156 0.0  141.4895782470703 -88.18254852294922 0.0  141.64231872558594 -88.71106719970703 0.0  141.44396464029947 -88.4178721110026 -0.4848276941489069
T FR4  147.46994018554688 -90.0747299194336 0.0  147.60000610351562 -90.1500015258789 0.0  147.4318389892578 -90.28601837158203 0.0  147.50059509277344 -90.17024993896484 -0.1937537331735564
T FR4  147.4704132080078 -89.92445373535156 0.0  147.46994018554688 -90.0747299194336 0.0  147.2645263671875 -90.00569152832031 0.0  147.40162658691406 -90.00162506103516 -0.19610554412246914
T FR4  147.60000610351562 -89.8499984741211 0.0  147.4704132080078 -89.92445373535156 0.0  147.4276580810547 -89.70639038085938 0.0  147.49935913085938 -89.82694753011067 -0.19867035245666784
T FR4  147.7300567626953 -89.9252700805664 0.0  147.60000610351562 -89.8499984741211 0.0  147.76077270507812 -89.69915771484375 0.0  147.6969451904297 -89.82480875651041 -0.1996345372054614
T FR4  147.72958374023438 -90.07554626464844 0.0  147.7300567626953 -89.9252700805664 0.0  147.9420166015625 -89.98759460449219 0.0  147.80055236816406 -89.99613698323567 -0.20037659565598923
T FR4  147.60000610351562 -90.1500015258789 0.0  147.72958374023438 -90.07554626464844 0.0  147.77688598632812 -90.29009246826172 0.0  147.70215861002603 -90.17188008626302 -0.19826036791343415
T FR4  146.19439697265625 -88.4313735961914 0.0  146.32398986816406 -88.50582885742188 0.0  146.1736602783203 -88.6319351196289 0.0  146.23068237304688 -88.52304585774739 -0.18243602889215346
T FR4  146.1929931640625 -88.28274536132812 0.0  146.19439697265625 -88.4313735961914 0.0  145.96665954589844 -88.38046264648438 0.0  146.11801656087238 -88.36486053466797 -0.20950684732773206
T FR4  146.32115173339844 -88.20585632324219 0.0  146.1929931640625 -88.28274536132812 0.0  146.1358642578125 -88.05062103271484 0.0  146.21666971842447 -88.17974090576172 -0.21007568536371032
T FR4  146.45542907714844 -88.2835693359375 0.0  146.32115173339844 -88.20585632324219 0.0  146.50213623046875 -88.07769775390625 0.0  146.42623901367188 -88.18904113769531 -0.19600443008337434
T FR4  146.45309448242188 -88.43218994140625 0.0  146.45542907714844 -88.2835693359375 0.0  146.64048767089844 -88.37533569335938 0.0  146.5163370768229 -88.3636983235677 -0.1836762288902917
T FR4  146.32398986816406 -88.50582885742188 0.0  146.45309448242188 -88.43218994140625 0.0  146.4737548828125 -88.64169311523438 0.0  146.4169464111328 -88.52657063802083 -0.18711941534039053
T FR4  131.76329040527344 -86.34981536865234 0.0  131.85000610351562 -86.4000015258789 0.0  131.74151611328125 -86.50848388671875 0.0  131.7849375406901 -86.41943359375 -0.137923119531608
T FR4  131.76361083984375 -86.24964141845703 0.0  131.76329040527344 -86.34981536865234 0.0  131.62332153320312 -86.2871322631836 0.0  131.71674092610675 -86.29552968343098 -0.1329169030601579
T FR4  131.85000610351562 -86.19999694824219 0.0  131.76361083984375 -86.24964141845703 0.0  131.75332641601562 -86.11418914794922 0.0  131.78898111979166 -86.18794250488281 -0.12158400424627867
T FR4  131.93670654296875 -86.25018310546875 0.0  131.85000610351562 -86.19999694824219 0.0  131.94631958007812 -86.12799072265625 0.0  131.9110107421875 -86.19272359212239 -0.11433417178054606
T FR4  131.93638610839844 -86.3503646850586 0.0  131.93670654296875 -86.25018310546875 0.0  132.05458068847656 -86.27691650390625 0.0  131.97589111328125 -86.29248809814453 -0.12006882224151982
T FR4  131.85000610351562 -86.4000015258789 0.0  131.93638610839844 -86.3503646850586 0.0  131.9764862060547 -86.468505859375 0.0  131.92095947265625 -86.40629069010416 -0.1227424985431979
T FR4  131.21328735351562 -85.79981994628906 0.0  131.3000030517578 -85.8499984741211 0.0  131.19789123535156 -85.92078399658203 0.0  131.237060546875 -85.85686747233072 -0.11545820260377969
T FR4  131.21392822265625 -85.6990966796875 0.0  131.21328735351562 -85.79981994628906 0.0  131.10000610351562 -85.74659729003906 0.0  131.17574055989581 -85.74850463867188 -0.11643824036310109
T FR4  131.30062866210938 -85.6500015258789 0.0  131.21392822265625 -85.6990966796875 0.0  131.2056884765625 -85.56043243408203 0.0  131.24008178710938 -85.63651021321614 -0.1230225698263312
T FR4  131.38702392578125 -85.70072937011719 0.0  131.30062866210938 -85.6500015258789 0.0  131.42431640625 -85.57628631591797 0.0  131.3706563313802 -85.64233907063802 -0.12469533777812125
T FR4  131.3863983154297 -85.80036163330078 0.0  131.38702392578125 -85.70072937011719 0.0  131.5003662109375 -85.76393127441406 0.0  131.42459615071613 -85.755007425944 -0.11635193349924593
T FR4  131.3000030517578 -85.8499984741211 0.0  131.3863983154297 -85.80036163330078 0.0  131.4010772705078 -85.93878936767578 0.0  131.36249287923175 -85.86304982503255 -0.12445951699147025
T FR4  132.31329345703125 -85.79981994628906 0.0  132.39999389648438 -85.8499984741211 0.0  132.31105041503906 -85.91731262207031 0.0  132.34144592285156 -85.85571034749348 -0.10974417224712689
T FR4  132.31361389160156 -85.69963836669922 0.0  132.31329345703125 -85.79981994628906 0.0  132.18618774414062 -85.76004028320312 0.0  132.27103169759113 -85.75316619873047 -0.12479477090431083
T FR4  132.400634765625 -85.6500015258789 0.0  132.31361389160156 -85.69963836669922 0.0  132.2962646484375 -85.55595397949219 0.0  132.3368377685547 -85.63519795735677 -0.12846743659083323
T FR4  132.48670959472656 -85.70018005371094 0.0  132.400634765625 -85.6500015258789 0.0  132.51280212402344 -85.57670593261719 0.0  132.46671549479166 -85.64229583740234 -0.11994190649947373
T FR4  132.48638916015625 -85.80036163330078 0.0  132.48670959472656 -85.70018005371094 0.0  132.6158905029297 -85.7668228149414 0.0  132.5296630859375 -85.7557881673177 -0.12643800854430412
T FR4  132.39999389648438 -85.8499984741211 0.0  132.48638916015625 -85.80036163330078 0.0  132.48458862304688 -85.9295883178711 0.0  132.45699055989581 -85.85998280843098 -0.11500943821800809
T FR4  131.76329040527344 -85.24981689453125 0.0  131.85000610351562 -85.30000305175781 0.0  131.7467041015625 -85.37611389160156 0.0  131.7866668701172 -85.3086446126302 -0.11862844997152198
T FR4  131.76361083984375 -85.1496353149414 0.0  131.76329040527344 -85.24981689453125 0.0  131.6332550048828 -85.18724060058594 0.0  131.72005208333331 -85.19556427001953 -0.12672081623292483
T FR4  131.85000610351562 -85.0999984741211 0.0  131.76361083984375 -85.1496353149414 0.0  131.7489471435547 -85.01751708984375 0.0  131.7875213623047 -85.08905029296875 -0.12100479033240168
T FR4  131.93670654296875 -85.15018463134766 0.0  131.85000610351562 -85.0999984741211 0.0  131.9375762939453 -85.02668762207031 0.0  131.90809631347656 -85.09229024251302 -0.11262801175322407
T FR4  131.93638610839844 -85.25035858154297 0.0  131.93670654296875 -85.15018463134766 0.0  132.0537872314453 -85.18307495117188 0.0  131.97562662760416 -85.19453938802083 -0.11903402304621247
T FR4  131.85000610351562 -85.30000305175781 0.0  131.93638610839844 -85.25035858154297 0.0  131.94679260253906 -85.36849975585938 0.0  131.9110616048177 -85.30628712972005 -0.11226692379487885
T FR4  131.21328735351562 -84.69982147216797 0.0  131.3000030517578 -84.75 0.0  131.1998291015625 -84.8228530883789 0.0  131.23770650227863 -84.75755818684895 -0.1159390797005861
T FR4  131.21360778808594 -84.59963989257812 0.0  131.21328735351562 -84.69982147216797 0.0  131.0958709716797 -84.66510009765625 0.0  131.17425537109375 -84.65485382080078 -0.11911181342664308
T FR4  131.3000030517578 -84.55000305175781 0.0  131.21360778808594 -84.59963989257812 0.0  131.18075561523438 -84.47313690185547 0.0  131.23145548502603 -84.54092661539713 -0.12407091341255927
T FR4  131.38670349121094 -84.60018157958984 0.0  131.3000030517578 -84.55000305175781 0.0  131.40792846679688 -84.47534942626953 0.0  131.36487833658853 -84.54184468587239 -0.1193422846303882
T FR4  131.3863983154297 -84.70036315917969 0.0  131.38670349121094 -84.60018157958984 0.0  131.49818420410156 -84.67304992675781 0.0  131.42376200358072 -84.65786488850911 -0.11614649494775402
T FR4  131.3000030517578 -84.75 0.0  131.3863983154297 -84.70036315917969 0.0  131.38934326171875 -84.84224700927734 0.0  131.35858154296875 -84.76420338948567 -0.12332385016319462
T FR4  131.76329040527344 -84.14981842041016 0.0  131.85000610351562 -84.19999694824219 0.0  131.75863647460938 -84.28550720214844 0.0  131.79064432779947 -84.21177419026692 -0.12036581652827882
T FR4  131.76361083984375 -84.04963684082031 0.0  131.76329040527344 -84.14981842041016 0.0  131.6510772705078 -84.11076354980469 0.0  131.72599283854166 -84.10340627034505 -0.11568698142526516
T FR4  131.8506317138672 -84.0 0.0  131.76361083984375 -84.04963684082031 0.0  131.7290496826172 -83.89957427978516 0.0  131.78109741210938 -83.98307037353516 -0.13728916942240688
T FR4  131.93670654296875 -84.05017852783203 0.0  131.8506317138672 -84.0 0.0  131.9761505126953 -83.89312744140625 0.0  131.92116292317706 -83.9811019897461 -0.14213844598934405
T FR4  131.93638610839844 -84.15036010742188 0.0  131.93670654296875 -84.05017852783203 0.0  132.11639404296875 -84.10360717773438 0.0  131.99649556477863 -84.10138193766275 -0.15787500891610376
T FR4  131.85000610351562 -84.19999694824219 0.0  131.93638610839844 -84.15036010742188 0.0  131.97525024414062 -84.30021667480469 0.0  131.92054748535156 -84.21685791015625 -0.13828201251767833
T FR4  132.31329345703125 -84.69982147216797 0.0  132.39999389648438 -84.75 0.0  132.2921905517578 -84.83196258544922 0.0  132.3351593017578 -84.76059468587239 -0.12313760344406434
T FR4  132.31361389160156 -84.59963989257812 0.0  132.31329345703125 -84.69982147216797 0.0  132.19239807128906 -84.62710571289062 0.0  132.27310180664062 -84.6421890258789 -0.1218498745230877
T FR4  132.39999389648438 -84.55000305175781 0.0  132.31361389160156 -84.59963989257812 0.0  132.31370544433594 -84.46195220947266 0.0  132.34243774414062 -84.53719838460286 -0.12019880530385896
T FR4  132.48670959472656 -84.60018157958984 0.0  132.39999389648438 -84.55000305175781 0.0  132.50270080566406 -84.47996520996094 0.0  132.463134765625 -84.54338328043619 -0.11525891506000863
T FR4  132.48638916015625 -84.70036315917969 0.0  132.48670959472656 -84.60018157958984 0.0  132.62208557128906 -84.6404037475586 0.0  132.53172810872394 -84.64698282877603 -0.1299200424545551
T FR4  132.39999389648438 -84.75 0.0  132.48638916015625 -84.70036315917969 0.0  132.4903564453125 -84.80906677246094 0.0  132.4589131673177 -84.75314331054688 -0.10545669454648433
T FR4  132.86329650878906 -86.34981536865234 0.0  132.9499969482422 -86.4000015258789 0.0  132.815185546875 -86.51454162597656 0.0  132.87615966796875 -86.42145284016927 -0.14956201289544635
T FR4  132.8636016845703 -86.24964141845703 0.0  132.86329650878906 -86.34981536865234 0.0  132.705078125 -86.2904052734375 0.0  132.81065877278644 -86.29662068684895 -0.1442866723671597
T FR4  132.9499969482422 -86.19999694824219 0.0  132.8636016845703 -86.24964141845703 0.0  132.83670043945312 -86.11238098144531 0.0  132.88343302408853 -86.18733978271484 -0.1275790277287713
T FR4  133.03671264648438 -86.25018310546875 0.0  132.9499969482422 -86.19999694824219 0.0  133.04127502441406 -86.12692260742188 0.0  133.0093282063802 -86.19236755371094 -0.11348714155682392
T FR4  133.03639221191406 -86.3503646850586 0.0  133.03671264648438 -86.25018310546875 0.0  133.16421508789062 -86.30325317382812 0.0  133.079106648763 -86.30126698811848 -0.12483888221597549
T FR4  132.9499969482422 -86.4000015258789 0.0  133.03639221191406 -86.3503646850586 0.0  133.05360412597656 -86.50143432617188 0.0  133.0133310953776 -86.41726684570312 -0.13222647845157712
T FR4  133.41329956054688 -85.79981994628906 0.0  133.5 -85.8499984741211 0.0  133.40155029296875 -85.89923858642578 0.0  133.4382832845052 -85.84968566894531 -0.10345384719415186
T FR4  133.41360473632812 -85.69963836669922 0.0  133.41329956054688 -85.79981994628906 0.0  133.3182373046875 -85.745361328125 0.0  133.3817138671875 -85.74827321370442 -0.1051666658136946
T FR4  133.5 -85.6500015258789 0.0  133.41360473632812 -85.69963836669922 0.0  133.39089965820312 -85.55940246582031 0.0  133.43483479817706 -85.63634745279947 -0.12783823816059972
T FR4  133.58670043945312 -85.70018005371094 0.0  133.5 -85.6500015258789 0.0  133.6152801513672 -85.54376220703125 0.0  133.56732686360675 -85.63131459554036 -0.13864992985145821
T FR4  133.58639526367188 -85.80036163330078 0.0  133.58670043945312 -85.70018005371094 0.0  133.7083282470703 -85.78186798095703 0.0  133.62714131673175 -85.76080322265625 -0.12334104875833483
T FR4  133.5 -85.8499984741211 0.0  133.58639526367188 -85.80036163330078 0.0  133.6221160888672 -85.90453338623047 0.0  133.5695037841797 -85.85163116455078 -0.11450171575127994
T FR4  132.86329650878906 -85.24981689453125 0.0  132.9499969482422 -85.30000305175781 0.0  132.8657989501953 -85.38706970214844 0.0  132.89303080240884 -85.31229654947916 -0.11952430805135056
T FR4  132.86329650878906 -85.15018463134766 0.0  132.86329650878906 -85.24981689453125 0.0  132.7613067626953 -85.20830535888672 0.0  132.8292999267578 -85.20276896158853 -0.10904476738671198
T FR4  132.9499969482422 -85.0999984741211 0.0  132.86329650878906 -85.15018463134766 0.0  132.85171508789062 -85.03594970703125 0.0  132.88833618164062 -85.09537760416666 -0.11076937905965101
T FR4  133.03671264648438 -85.15018463134766 0.0  132.9499969482422 -85.0999984741211 0.0  133.03916931152344 -85.02561950683594 0.0  133.00862630208331 -85.09193420410156 -0.11363361720404881
T FR4  133.03671264648438 -85.24981689453125 0.0  133.03671264648438 -85.15018463134766 0.0  133.161376953125 -85.1810302734375 0.0  133.07826741536456 -85.1936772664388 -0.12347949726067475
T FR4  132.9499969482422 -85.30000305175781 0.0  133.03671264648438 -85.24981689453125 0.0  133.05703735351562 -85.36443328857422 0.0  133.01458231608072 -85.30475107828775 -0.11384374867336956
T FR4  133.41329956054688 -84.69982147216797 0.0  133.5 -84.75 0.0  133.4005126953125 -84.84830474853516 0.0  133.43793741861978 -84.7660420735677 -0.12968984804171796
T FR4  133.41360473632812 -84.59963989257812 0.0  133.41329956054688 -84.69982147216797 0.0  133.28160095214844 -84.67723846435547 0.0  133.36950174967447 -84.65889994303384 -0.12897515236702653
T FR4  133.50062561035156 -84.55000305175781 0.0  133.41360473632812 -84.59963989257812 0.0  133.397705078125 -84.46525573730469 0.0  133.43731180826822 -84.53829956054688 -0.12294183344819833
T FR4  133.58670043945312 -84.60018157958984 0.0  133.50062561035156 -84.55000305175781 0.0  133.6142120361328 -84.48870849609375 0.0  133.56717936197916 -84.54629770914713 -0.1145067756768401
T FR4  133.58639526367188 -84.70036315917969 0.0  133.58670043945312 -84.60018157958984 0.0  133.6953125 -84.65324401855469 0.0  133.622802734375 -84.65126291910806 -0.11324518392208323
T FR4  133.5 -84.75 0.0  133.58639526367188 -84.70036315917969 0.0  133.61122131347656 -84.8425064086914 0.0  133.5658721923828 -84.76428985595703 -0.129532634336225
T FR4  132.86329650878906 -84.14981842041016 0.0  132.9499969482422 -84.19999694824219 0.0  132.83895874023438 -84.27367401123047 0.0  132.8840840657552 -84.20782979329427 -0.11988553877151574
T FR4  132.8636016845703 -84.04963684082031 0.0  132.86329650878906 -84.14981842041016 0.0  132.75643920898438 -84.11140441894531 0.0  132.82777913411456 -84.10361989339192 -0.11247452055808822
T FR4  132.9499969482422 -84.0 0.0  132.8636016845703 -84.04963684082031 0.0  132.8139190673828 -83.93499755859375 0.0  132.87583923339844 -83.99487813313802 -0.12512914116834328
T FR4  133.03671264648438 -84.05017852783203 0.0  132.9499969482422 -84.0 0.0  133.034423828125 -83.91458129882812 0.0  133.00704447428384 -83.98825327555338 -0.11863495466411907
T FR4  133.03639221191406 -84.15036010742188 0.0  133.03671264648438 -84.05017852783203 0.0  133.1631317138672 -84.09907531738281 0.0  133.07874552408853 -84.09987131754556 -0.12415013297200954
T FR4  132.9499969482422 -84.19999694824219 0.0  133.03639221191406 -84.15036010742188 0.0  133.0330352783203 -84.27376556396484 0.0  133.0064748128255 -84.20804087320963 -0.11138769010945215
T FR4  140.92025756835938 -86.93043518066406 0.0  141.1999969482422 -87.08999633789062 0.0  140.79733276367188 -87.21564483642578 0.0  140.97252909342447 -87.07869211832681 -0.35147709509758235
T FR4  140.9152069091797 -86.60842895507812 0.0  140.92025756835938 -86.93043518066406 0.0  140.47982788085938 -86.71477508544922 0.0  140.77176411946613 -86.75121307373047 -0.420206716403694
T FR4  141.1959228515625 -86.44002532958984 0.0  140.9152069091797 -86.60842895507812 0.0  140.80531311035156 -86.09841918945312 0.0  140.9721476236979 -86.38229115804036 -0.4559943241771769
T FR4  141.47764587402344 -86.59606170654297 0.0  141.1959228515625 -86.44002532958984 0.0  141.52743530273438 -86.10459899902344 0.0  141.40033467610675 -86.38022867838541 -0.42921061259872767
T FR4  141.4867401123047 -86.91797637939453 0.0  141.47764587402344 -86.59606170654297 0.0  141.9078826904297 -86.68046569824219 0.0  141.62408955891925 -86.73150126139322 -0.4146603697908433
T FR4  141.1999969482422 -87.08999633789062 0.0  141.4867401123047 -86.91797637939453 0.0  141.5778350830078 -87.19671630859375 0.0  141.42152404785156 -87.06822967529297 -0.3400839866563121
T FR4  144.46749877929688 -85.21202850341797 0.0  144.59754943847656 -85.28730010986328 0.0  144.4341278076172 -85.4122085571289 0.0  144.49972534179688 -85.30384572347005 -0.18629883856364773
T FR4  144.46749877929688 -85.06256866455078 0.0  144.46749877929688 -85.21202850341797 0.0  144.25848388671875 -85.13574981689453 0.0  144.3978271484375 -85.13678232828775 -0.1978047998656547
T FR4  144.59661865234375 -84.9873046875 0.0  144.46749877929688 -85.06256866455078 0.0  144.4181365966797 -84.82403564453125 0.0  144.49408467610675 -84.95796966552734 -0.2116450655315613
T FR4  144.72808837890625 -85.06339263916016 0.0  144.59661865234375 -84.9873046875 0.0  144.78379821777344 -84.83248901367188 0.0  144.7028350830078 -84.961062113444 -0.2107789452933239
T FR4  144.72714233398438 -85.21284484863281 0.0  144.72808837890625 -85.06339263916016 0.0  144.92984008789062 -85.14576721191406 0.0  144.7950236002604 -85.14066823323567 -0.19362798020634697
T FR4  144.59754943847656 -85.28730010986328 0.0  144.72714233398438 -85.21284484863281 0.0  144.75238037109375 -85.42015838623047 0.0  144.69235738118488 -85.30676778157552 -0.18744075698570142
T FR4  149.50765991210938 -87.45060729980469 0.0  149.63999938964844 -87.52999877929688 0.0  149.47740173339844 -87.67588806152344 0.0  149.54168701171875 -87.55216471354166 -0.20002779524530498
T FR4  149.51284790039062 -87.30042266845703 0.0  149.50765991210938 -87.45060729980469 0.0  149.3130340576172 -87.37984466552734 0.0  149.44451395670572 -87.37695821126302 -0.1907948474926732
T FR4  149.64376831054688 -87.23004913330078 0.0  149.51284790039062 -87.30042266845703 0.0  149.4766845703125 -87.11214447021484 0.0  149.54443359375 -87.21420542399088 -0.1816170678449729
T FR4  149.7714385986328 -87.3077392578125 0.0  149.64376831054688 -87.23004913330078 0.0  149.7934112548828 -87.09689331054688 0.0  149.7362060546875 -87.21156056722005 -0.187248917841539
T FR4  149.76910400390625 -87.45635986328125 0.0  149.7714385986328 -87.3077392578125 0.0  149.91339111328125 -87.37054443359375 0.0  149.81797790527344 -87.37821451822916 -0.15724756941645454
T FR4  149.63999938964844 -87.52999877929688 0.0  149.76910400390625 -87.45635986328125 0.0  149.82333374023438 -87.64542388916016 0.0  149.744145711263 -87.54392751057942 -0.18732023409133902
T FR4  140.92025756835938 -81.40544128417969 0.0  141.1999969482422 -81.56500244140625 0.0  140.8916473388672 -81.91011810302734 0.0  141.00396728515625 -81.6268539428711 -0.4301113421402021
T FR4  140.91229248046875 -81.08882904052734 0.0  140.92025756835938 -81.40544128417969 0.0  140.5753173828125 -81.3036117553711 0.0  140.80262247721353 -81.26596069335938 -0.3586579234323284
T FR4  141.1836700439453 -80.91541290283203 0.0  140.91229248046875 -81.08882904052734 0.0  140.859619140625 -80.76856994628906 0.0  140.98519388834634 -80.92427062988281 -0.33412847457467
T FR4  141.48077392578125 -81.07632446289062 0.0  141.1836700439453 -80.91541290283203 0.0  141.46255493164062 -80.6131820678711 0.0  141.37566630045572 -80.86830647786458 -0.4042078201453602
T FR4  141.4867401123047 -81.39298248291016 0.0  141.48077392578125 -81.07632446289062 0.0  141.91839599609375 -81.2303695678711 0.0  141.62863667805988 -81.23322550455728 -0.41397560031102903
T FR4  141.1999969482422 -81.56500244140625 0.0  141.4867401123047 -81.39298248291016 0.0  141.6095428466797 -81.89800262451172 0.0  141.43209330240884 -81.61866251627603 -0.4606539683994158
T FR4  140.91819763183594 -80.13191223144531 0.0  141.1999969482422 -80.29499816894531 0.0  140.86399841308594 -80.44252014160156 0.0  140.9940643310547 -80.28981018066406 -0.3359490339758207
T FR4  140.9161834716797 -79.8116455078125 0.0  140.91819763183594 -80.13191223144531 0.0  140.60804748535156 -79.9145278930664 0.0  140.81414286295572 -79.95269521077473 -0.3412925098278312
T FR4  141.18978881835938 -79.64515686035156 0.0  140.9161834716797 -79.8116455078125 0.0  140.9139404296875 -79.48135375976562 0.0  141.0066375732422 -79.64605204264322 -0.32379843344759235
T FR4  141.47657775878906 -79.79931640625 0.0  141.18978881835938 -79.64515686035156 0.0  141.46188354492188 -79.3358383178711 0.0  141.37608337402344 -79.59343719482422 -0.4004234733856984
T FR4  141.4886474609375 -80.1193618774414 0.0  141.47657775878906 -79.79931640625 0.0  141.89776611328125 -79.94779205322266 0.0  141.6209971110026 -79.95549011230469 -0.4035009303717752
T FR4  141.1999969482422 -80.29499816894531 0.0  141.4886474609375 -80.1193618774414 0.0  141.46255493164062 -80.6131820678711 0.0  141.38373311360675 -80.34251403808594 -0.41497381462159283
T FR4  143.36993408203125 -80.54473114013672 0.0  143.5 -80.62000274658203 0.0  143.3576202392578 -80.7492904663086 0.0  143.409184773763 -80.63800811767578 -0.18250891460780738
T FR4  143.36993408203125 -80.39527130126953 0.0  143.36993408203125 -80.54473114013672 0.0  143.2133026123047 -80.47109985351562 0.0  143.31772359212238 -80.47036743164062 -0.16551871486862035
T FR4  143.49905395507812 -80.31999969482422 0.0  143.36993408203125 -80.39527130126953 0.0  143.33250427246094 -80.2042236328125 0.0  143.40049743652344 -80.30649820963541 -0.1823250208373605
T FR4  143.6291046142578 -80.39364624023438 0.0  143.49905395507812 -80.31999969482422 0.0  143.64674377441406 -80.19017028808594 0.0  143.59163411458331 -80.3012720743815 -0.18344547306656045
T FR4  143.63099670410156 -80.5430908203125 0.0  143.6291046142578 -80.39364624023438 0.0  143.7973175048828 -80.45160675048828 0.0  143.68580627441406 -80.46278127034505 -0.17239863023502078
T FR4  143.5 -80.62000274658203 0.0  143.63099670410156 -80.5430908203125 0.0  143.6654510498047 -80.7157974243164 0.0  143.59881591796875 -80.62629699707031 -0.17306620505556003
T FR4  140.9171905517578 -78.86013793945312 0.0  141.1999969482422 -79.0250015258789 0.0  140.91567993164062 -79.17581176757812 0.0  141.01095581054688 -79.02031707763672 -0.32162264793582634
T FR4  140.9171905517578 -78.53986358642578 0.0  140.9171905517578 -78.86013793945312 0.0  140.6177520751953 -78.70215606689453 0.0  140.81737772623697 -78.70071919759114 -0.3331412038227505
T FR4  141.19183349609375 -78.3750991821289 0.0  140.9171905517578 -78.53986358642578 0.0  140.9032440185547 -78.1890640258789 0.0  141.00408935546875 -78.36800893147786 -0.3382357011582737
T FR4  141.47549438476562 -78.52758026123047 0.0  141.19183349609375 -78.3750991821289 0.0  141.47511291503906 -78.16643524169922 0.0  141.3808135986328 -78.35637156168619 -0.34500892403823896
T FR4  141.4895782470703 -78.84754943847656 0.0  141.47549438476562 -78.52758026123047 0.0  141.8539581298828 -78.65780639648438 0.0  141.60634358723956 -78.67764536539713 -0.3771144909987394
T FR4  141.1999969482422 -79.0250015258789 0.0  141.4895782470703 -78.84754943847656 0.0  141.46188354492188 -79.3358383178711 0.0  141.38381958007812 -79.06946309407552 -0.41171794047875715
T FR4  140.9171905517578 -77.59013366699219 0.0  141.1999969482422 -77.75499725341797 0.0  140.8376007080078 -77.87714385986328 0.0  140.98492940266925 -77.74075826009114 -0.33587365505383
T FR4  140.9171905517578 -77.26986694335938 0.0  140.9171905517578 -77.59013366699219 0.0  140.595703125 -77.42636108398438 0.0  140.81002807617188 -77.42878723144531 -0.34620630766041427
T FR4  141.19183349609375 -77.1051025390625 0.0  140.9171905517578 -77.26986694335938 0.0  140.88099670410156 -76.85414123535156 0.0  140.99667358398438 -77.07637023925781 -0.3790247673882601
T FR4  141.47549438476562 -77.25758361816406 0.0  141.19183349609375 -77.1051025390625 0.0  141.5015869140625 -76.92887115478516 0.0  141.38963826497394 -77.09718577067056 -0.33605671078347704
T FR4  141.4895782470703 -77.57754516601562 0.0  141.47549438476562 -77.25758361816406 0.0  141.7884063720703 -77.39490509033203 0.0  141.58449300130206 -77.4100112915039 -0.3374038363873108
T FR4  141.1999969482422 -77.75499725341797 0.0  141.4895782470703 -77.57754516601562 0.0  141.5474090576172 -77.86405944824219 0.0  141.41232808430988 -77.7322006225586 -0.33201607492969626
T FR4  149.48721313476562 -77.71977233886719 0.0  149.6199951171875 -77.80000305175781 0.0  149.49453735351562 -77.90835571289062 0.0  149.5339152018229 -77.8093770345052 -0.16987834773522584
T FR4  149.49185180664062 -77.57202911376953 0.0  149.48721313476562 -77.71977233886719 0.0  149.28904724121094 -77.68112182617188 0.0  149.42270406087238 -77.65764109293619 -0.19333345869557803
T FR4  149.6199951171875 -77.5 0.0  149.49185180664062 -77.57202911376953 0.0  149.44078063964844 -77.36658477783203 0.0  149.51754252115884 -77.47953796386719 -0.19403961508783354
T FR4  149.75277709960938 -77.58023071289062 0.0  149.6199951171875 -77.5 0.0  149.79205322265625 -77.37447357177734 0.0  149.7216084798177 -77.48490142822266 -0.1925306256538548
T FR4  149.74813842773438 -77.72797393798828 0.0  149.75277709960938 -77.58023071289062 0.0  149.88417053222656 -77.66744232177734 0.0  149.79502868652344 -77.65854899088541 -0.15147017742054422
T FR4  149.6199951171875 -77.80000305175781 0.0  149.74813842773438 -77.72797393798828 0.0  149.76748657226562 -77.88445281982422 0.0  149.71187337239581 -77.80414326985677 -0.15820916822817524
T FR4  158.91041564941406 -95.19554138183594 0.0  159.0399932861328 -95.2699966430664 0.0  158.87281799316406 -95.40951538085938 0.0  158.94107564290363 -95.29168446858723 -0.19481430844561665
T FR4  158.91041564941406 -95.0444564819336 0.0  158.91041564941406 -95.19554138183594 0.0  158.69261169433594 -95.11488342285156 0.0  158.8378143310547 -95.11829376220703 -0.20408372645578787
T FR4  159.0399932861328 -94.97000122070312 0.0  158.91041564941406 -95.0444564819336 0.0  158.87643432617188 -94.8260726928711 0.0  158.94228108723956 -94.94684346516927 -0.19610879440299733
T FR4  159.1691131591797 -95.04364013671875 0.0  159.0399932861328 -94.97000122070312 0.0  159.20314025878906 -94.81756591796875 0.0  159.13741556803384 -94.94373575846353 -0.20018071443341212
T FR4  159.1691131591797 -95.19635772705078 0.0  159.1691131591797 -95.04364013671875 0.0  159.41561889648438 -95.1097640991211 0.0  159.25128173828125 -95.11658732096353 -0.22307030385978366
T FR4  159.0399932861328 -95.2699966430664 0.0  159.1691131591797 -95.19635772705078 0.0  159.20925903320312 -95.42111206054688 0.0  159.1394551595052 -95.29582214355469 -0.20128706998035353
T FR4  160.56765747070312 -94.2706069946289 0.0  160.6999969482422 -94.3499984741211 0.0  160.55686950683594 -94.49079895019531 0.0  160.60817464192706 -94.37046813964844 -0.19185230353688976
T FR4  160.57235717773438 -94.12122344970703 0.0  160.56765747070312 -94.2706069946289 0.0  160.38644409179688 -94.22203826904297 0.0  160.50881958007812 -94.20462290445963 -0.1828516514497971
T FR4  160.70281982421875 -94.0500259399414 0.0  160.57235717773438 -94.12122344970703 0.0  160.51425170898438 -93.92420959472656 0.0  160.59647623697916 -94.03181966145833 -0.19357264866592352
T FR4  160.83099365234375 -94.12691497802734 0.0  160.70281982421875 -94.0500259399414 0.0  160.85195922851562 -93.89801788330078 0.0  160.79525756835938 -94.02498626708984 -0.19742518555088007
T FR4  160.82911682128906 -94.27635955810547 0.0  160.83099365234375 -94.12691497802734 0.0  161.02931213378906 -94.17887878417969 0.0  160.89647420247394 -94.19405110677083 -0.19237894514773887
T FR4  160.6999969482422 -94.3499984741211 0.0  160.82911682128906 -94.27635955810547 0.0  160.88352966308594 -94.46603393554688 0.0  160.80421447753906 -94.36413065592447 -0.18770152599884948
T FR4  164.16993713378906 -90.0747299194336 0.0  164.3000030517578 -90.1500015258789 0.0  164.1325225830078 -90.27671813964844 0.0  164.20082092285156 -90.16714986165364 -0.18857221654929682
T FR4  164.17041015625 -89.92445373535156 0.0  164.16993713378906 -90.0747299194336 0.0  163.9882354736328 -90.0020980834961 0.0  164.10952758789062 -90.00042724609375 -0.1813294777511646
T FR4  164.3000030517578 -89.8499984741211 0.0  164.17041015625 -89.92445373535156 0.0  164.14125061035156 -89.72886657714844 0.0  164.20388793945312 -89.83443959554036 -0.18229850559037608
T FR4  164.4300537109375 -89.9252700805664 0.0  164.3000030517578 -89.8499984741211 0.0  164.44517517089844 -89.72726440429688 0.0  164.39174397786456 -89.83417765299478 -0.17964894909826332
T FR4  164.42959594726562 -90.07554626464844 0.0  164.4300537109375 -89.9252700805664 0.0  164.64053344726562 -89.98649597167969 0.0  164.50006103515625 -89.99577077229817 -0.19948162924279647
T FR4  164.3000030517578 -90.1500015258789 0.0  164.42959594726562 -90.07554626464844 0.0  164.47877502441406 -90.30853271484375 0.0  164.40279134114581 -90.17802683512369 -0.20883912619096115
T FR4  171.36947631835938 -93.77391052246094 0.0  171.5 -93.8499984741211 0.0  171.36109924316406 -93.98534393310547 0.0  171.41019185384113 -93.8697509765625 -0.1855396912192935
T FR4  171.3704071044922 -93.62445831298828 0.0  171.36947631835938 -93.77391052246094 0.0  171.16941833496094 -93.71082305908203 0.0  171.3031005859375 -93.70306396484375 -0.19266107738613625
T FR4  171.50094604492188 -93.55000305175781 0.0  171.3704071044922 -93.62445831298828 0.0  171.34686279296875 -93.39451599121094 0.0  171.40607198079425 -93.52299245198567 -0.2001086054656455
T FR4  171.63006591796875 -93.62527465820312 0.0  171.50094604492188 -93.55000305175781 0.0  171.66392517089844 -93.46237182617188 0.0  171.5983123779297 -93.54588317871094 -0.16696234711873684
T FR4  171.6295928955078 -93.77554321289062 0.0  171.63006591796875 -93.62527465820312 0.0  171.80078125 -93.70367431640625 0.0  171.6868133544922 -93.70149739583333 -0.17459627168109026
T FR4  171.5 -93.8499984741211 0.0  171.6295928955078 -93.77554321289062 0.0  171.65924072265625 -93.95464324951172 0.0  171.59627787272134 -93.86006164550781 -0.17384767208869026
T FR4  169.44357299804688 -90.13804626464844 0.0  169.5731658935547 -90.2125015258789 0.0  169.41827392578125 -90.33914184570312 0.0  169.47833760579425 -90.22989654541016 -0.18407088200845675
T FR4  169.44216918945312 -89.98941040039062 0.0  169.44357299804688 -90.13804626464844 0.0  169.22825622558594 -90.06458282470703 0.0  169.37133280436197 -90.06401316324869 -0.20096123898595544
T FR4  169.57598876953125 -89.91252899169922 0.0  169.44216918945312 -89.98941040039062 0.0  169.41236877441406 -89.77523803710938 0.0  169.47684224446613 -89.89239247639973 -0.19471899822874775
T FR4  169.7036895751953 -89.98859405517578 0.0  169.57598876953125 -89.91252899169922 0.0  169.73788452148438 -89.77595520019531 0.0  169.67252095540363 -89.8923594156901 -0.19193908563616036
T FR4  169.7022705078125 -90.13885498046875 0.0  169.7036895751953 -89.98859405517578 0.0  169.91087341308594 -90.0663070678711 0.0  169.77227783203125 -90.06458536783853 -0.19746834043769493
T FR4  169.5731658935547 -90.2125015258789 0.0  169.7022705078125 -90.13885498046875 0.0  169.72535705566406 -90.33451080322266 0.0  169.66693115234375 -90.22862243652344 -0.18023545097776295
T FR4  173.86993408203125 -91.8247299194336 0.0  174.0 -91.9000015258789 0.0  173.8394775390625 -92.02625274658203 0.0  173.90313720703125 -91.9169947306315 -0.18610336249737305
T FR4  173.8704071044922 -91.67445373535156 0.0  173.86993408203125 -91.8247299194336 0.0  173.689697265625 -91.75011444091797 0.0  173.8100128173828 -91.74976603190103 -0.18041926278832052
T FR4  174.0 -91.5999984741211 0.0  173.8704071044922 -91.67445373535156 0.0  173.8313446044922 -91.48841857910156 0.0  173.90058390299478 -91.5876235961914 -0.18059169885704984
T FR4  174.13006591796875 -91.6752700805664 0.0  174.0 -91.5999984741211 0.0  174.13372802734375 -91.46683502197266 0.0  174.08793131510416 -91.58070119222005 -0.18248823185722407
T FR4  174.1295928955078 -91.82554626464844 0.0  174.13006591796875 -91.6752700805664 0.0  174.31907653808594 -91.72601318359375 0.0  174.19291178385416 -91.74227650960286 -0.18667174917876858
T FR4  174.0 -91.9000015258789 0.0  174.1295928955078 -91.82554626464844 0.0  174.1693572998047 -92.02262115478516 0.0  174.09965006510416 -91.91605631510416 -0.1865308313057145
T FR4  172.7454071044922 -90.13804626464844 0.0  172.875 -90.2125015258789 0.0  172.72177124023438 -90.34040069580078 0.0  172.78072611490884 -90.23031616210938 -0.1842605187771064
T FR4  172.74493408203125 -89.9877700805664 0.0  172.7454071044922 -90.13804626464844 0.0  172.52487182617188 -90.06019592285156 0.0  172.67173767089844 -90.06200408935547 -0.20527461571099362
T FR4  172.87310791015625 -89.91251373291016 0.0  172.74493408203125 -89.9877700805664 0.0  172.728515625 -89.73367309570312 0.0  172.78218587239581 -89.87798563639322 -0.21108034424630304
