0 conductor definition file for the following objects
* - A_NodoNegativoLPF
* created using FreeCAD's ElectroMagnetic workbench
* see http://www.freecad.org and http://www.fastfieldsolvers.com

Q Nodo053  154.921092 -96.35 1.51  154.921092 -96.35 1.55  155.071092 -96.2 1.55  155.071092 -96.19999999999102 1.51
Q Nodo053  155.071092 -96.2 1.51  155.071092 -96.2 1.55  155.371092 -96.2 1.55  155.371092 -96.2 1.51
Q Nodo053  155.371092 -96.2 1.51  155.371092 -96.2 1.55  155.521092 -96.35 1.55  155.521091999999 -96.35 1.51
Q Nodo053  155.521092 -96.35 1.51  155.521092 -96.35 1.55  155.521092 -98.0 1.55  155.521092 -98.0 1.51
Q Nodo053  155.521092 -98.0 1.51  155.521092 -98.0 1.55  155.371092 -98.15 1.55  155.371092 -98.14999999999898 1.51
Q Nodo053  155.071092 -98.15 1.51  155.071092 -98.15 1.55  154.921092 -98.0 1.55  154.921091999991 -98.0 1.51
Q Nodo053  154.921092 -98.0 1.51  154.921092 -98.0 1.55  154.921092 -96.35 1.55  154.921092 -96.35 1.51
Q Nodo053  155.319171 -98.282193 1.545  155.319171 -98.15 1.545  155.319171 -98.15 1.51  155.319171 -98.282193 1.51
Q Nodo053  155.319171 -98.282193 1.51  155.319171 -98.282193 1.545  155.30424 -98.318241 1.545  155.30424 -98.318241 1.51
Q Nodo053  155.30424 -98.318241 1.51  155.30424 -98.318241 1.545  154.423592 -99.201605 1.545  154.42359199999996 -99.20160499999994 1.51
Q Nodo053  154.42328635110857 -100.0 1.545  154.423592 -99.201605 1.545  154.423592 -99.201605 1.51  154.4232863511 -100.0 1.51
Q Nodo053  154.225513 -99.140675 1.545  154.225513 -100.0 1.545  154.225513 -100.0 1.51  154.225513 -99.140675 1.51
Q Nodo053  154.225513 -99.140675 1.51  154.225513 -99.140675 1.545  154.240445 -99.104627 1.545  154.24044500000002 -99.10462700000001 1.51
Q Nodo053  154.240445 -99.104627 1.51  154.240445 -99.104627 1.545  155.121092 -98.221262 1.545  155.12109200000012 -98.22126200000011 1.51
Q Nodo053  155.12122044626284 -98.15 1.545  155.121092 -98.221262 1.545  155.121092 -98.221262 1.51  155.12122044626 -98.15 1.51
Q Nodo053  154.673592 -100.0 1.51  154.673592 -100.0 1.55  154.923592 -100.25 1.55  154.92359199999285 -100.25 1.51
Q Nodo053  153.723592 -100.25 1.51  153.723592 -100.25 1.55  153.973592 -100.0 1.55  153.973592 -99.99999999991716 1.51
Q Nodo053  154.923592 -100.25 1.51  154.923592 -100.25 1.55  154.923592 -101.15 1.55  154.923592 -101.15 1.51
Q Nodo053  154.923592 -101.15 1.51  154.923592 -101.15 1.55  154.673592 -101.4 1.55  154.673592 -101.39999999998284 1.51
Q Nodo053  154.42194644902992 -103.5 1.545  154.42275039027 -101.4 1.545  154.42275039027 -101.4 1.51  154.42194644903 -103.5 1.51
Q Nodo053  154.225513 -101.4 1.545  154.225513 -103.5 1.545  154.225513 -103.5 1.51  154.225513 -101.4 1.51
Q Nodo053  153.973592 -101.4 1.51  153.973592 -101.4 1.55  153.723592 -101.15 1.55  153.72359199999715 -101.15 1.51
Q Nodo053  153.723592 -101.15 1.51  153.723592 -101.15 1.55  153.723592 -100.25 1.55  153.723592 -100.25 1.51
Q Nodo053  154.225513 -103.5 1.545  154.225513 -101.4 1.545  154.42275039027 -101.4 1.545  154.42194644903 -103.5 1.545
Q Nodo053  154.673592 -103.5 1.51  154.673592 -103.5 1.55  154.923592 -103.75 1.55  154.92359199999285 -103.75 1.51
Q Nodo053  153.723592 -103.75 1.51  153.723592 -103.75 1.55  153.973592 -103.5 1.55  153.973592 -103.49999999991716 1.51
Q Nodo053  154.923592 -103.75 1.51  154.923592 -103.75 1.55  154.923592 -104.65 1.55  154.923592 -104.65 1.51
Q Nodo053  154.923592 -104.65 1.51  154.923592 -104.65 1.55  154.673592 -104.9 1.55  154.673592 -104.89999999998284 1.51
Q Nodo053  154.673592 -104.9 1.51  154.673592 -104.9 1.55  153.973592 -104.9 1.55  153.973592 -104.9 1.51
Q Nodo053  153.973592 -104.9 1.51  153.973592 -104.9 1.55  153.723592 -104.65 1.55  153.72359199999715 -104.65 1.51
Q Nodo053  153.723592 -104.65 1.51  153.723592 -104.65 1.55  153.723592 -103.75 1.55  153.723592 -103.75 1.51
T Nodo053  154.9210968017578 -96.3499984741211 1.5099999904632568  154.96502685546875 -96.24393463134766 1.5099999904632568  155.03941345214844 -96.30854797363281 1.5099999904632568
T Nodo053  154.96502685546875 -96.24393463134766 1.5099999904632568  155.0710906982422 -96.19999694824219 1.5099999904632568  155.03941345214844 -96.30854797363281 1.5099999904632568
T Nodo053  154.9210968017578 -98.0 1.5099999904632568  154.9210968017578 -97.81849670410156 1.5099999904632568  155.1632843017578 -97.94832611083984 1.5099999904632568
T Nodo053  154.9210968017578 -97.39115142822266 1.5099999904632568  154.9210968017578 -96.69815063476562 1.5099999904632568  155.52108764648438 -97.34989929199219 1.5099999904632568
T Nodo053  155.1212158203125 -98.1500015258789 1.5099999904632568  155.0710906982422 -98.1500015258789 1.5099999904632568  155.1172637939453 -98.10367584228516 1.5099999904632568
T Nodo053  155.12109375 -98.22126007080078 1.5099999904632568  155.1212158203125 -98.1500015258789 1.5099999904632568  155.2153778076172 -98.19375610351562 1.5099999904632568
T Nodo053  154.24044799804688 -99.10462951660156 1.5099999904632568  154.3179473876953 -99.02689361572266 1.5099999904632568  154.3162384033203 -99.12670135498047 1.5099999904632568
T Nodo053  154.3179473876953 -99.02689361572266 1.5099999904632568  154.41217041015625 -98.932373046875 1.5099999904632568  154.43817138671875 -99.05146026611328 1.5099999904632568
T Nodo053  154.41217041015625 -98.932373046875 1.5099999904632568  154.4923095703125 -98.85198211669922 1.5099999904632568  154.52748107910156 -98.95027160644531 1.5099999904632568
T Nodo053  154.4923095703125 -98.85198211669922 1.5099999904632568  154.56716918945312 -98.77690124511719 1.5099999904632568  154.5812530517578 -98.87084197998047 1.5099999904632568
T Nodo053  154.4923095703125 -98.85198211669922 1.5099999904632568  154.5812530517578 -98.87084197998047 1.5099999904632568  154.52748107910156 -98.95027160644531 1.5099999904632568
T Nodo053  154.56716918945312 -98.77690124511719 1.5099999904632568  154.6428985595703 -98.700927734375 1.5099999904632568  154.6568145751953 -98.81928253173828 1.5099999904632568
T Nodo053  154.56716918945312 -98.77690124511719 1.5099999904632568  154.6568145751953 -98.81928253173828 1.5099999904632568  154.5812530517578 -98.87084197998047 1.5099999904632568
T Nodo053  154.6428985595703 -98.700927734375 1.5099999904632568  154.72215270996094 -98.62142944335938 1.5099999904632568  154.734619140625 -98.74771881103516 1.5099999904632568
T Nodo053  154.6428985595703 -98.700927734375 1.5099999904632568  154.734619140625 -98.74771881103516 1.5099999904632568  154.6568145751953 -98.81928253173828 1.5099999904632568
T Nodo053  154.72215270996094 -98.62142944335938 1.5099999904632568  154.7978973388672 -98.54545593261719 1.5099999904632568  154.816650390625 -98.66736602783203 1.5099999904632568
T Nodo053  154.72215270996094 -98.62142944335938 1.5099999904632568  154.816650390625 -98.66736602783203 1.5099999904632568  154.734619140625 -98.74771881103516 1.5099999904632568
T Nodo053  154.7978973388672 -98.54545593261719 1.5099999904632568  154.88595581054688 -98.45712280273438 1.5099999904632568  154.91964721679688 -98.57234954833984 1.5099999904632568
T Nodo053  154.7978973388672 -98.54545593261719 1.5099999904632568  154.91964721679688 -98.57234954833984 1.5099999904632568  154.816650390625 -98.66736602783203 1.5099999904632568
T Nodo053  154.88595581054688 -98.45712280273438 1.5099999904632568  154.97314453125 -98.36966705322266 1.5099999904632568  155.00982666015625 -98.468505859375 1.5099999904632568
T Nodo053  154.88595581054688 -98.45712280273438 1.5099999904632568  155.00982666015625 -98.468505859375 1.5099999904632568  154.91964721679688 -98.57234954833984 1.5099999904632568
T Nodo053  154.97314453125 -98.36966705322266 1.5099999904632568  155.0488739013672 -98.293701171875 1.5099999904632568  155.06759643554688 -98.3894271850586 1.5099999904632568
T Nodo053  154.97314453125 -98.36966705322266 1.5099999904632568  155.06759643554688 -98.3894271850586 1.5099999904632568  155.00982666015625 -98.468505859375 1.5099999904632568
T Nodo053  155.0488739013672 -98.293701171875 1.5099999904632568  155.12109375 -98.22126007080078 1.5099999904632568  155.1591796875 -98.33894348144531 1.5099999904632568
T Nodo053  155.0488739013672 -98.293701171875 1.5099999904632568  155.1591796875 -98.33894348144531 1.5099999904632568  155.06759643554688 -98.3894271850586 1.5099999904632568
T Nodo053  154.2255096435547 -99.88829040527344 1.5099999904632568  154.2255096435547 -99.783447265625 1.5099999904632568  154.32496643066406 -99.83077239990234 1.5099999904632568
T Nodo053  154.2255096435547 -99.783447265625 1.5099999904632568  154.2255096435547 -99.68119049072266 1.5099999904632568  154.3245391845703 -99.7225341796875 1.5099999904632568
T Nodo053  154.2255096435547 -99.783447265625 1.5099999904632568  154.3245391845703 -99.7225341796875 1.5099999904632568  154.32496643066406 -99.83077239990234 1.5099999904632568
T Nodo053  154.2255096435547 -99.68119049072266 1.5099999904632568  154.2255096435547 -99.5703353881836 1.5099999904632568  154.32447814941406 -99.61434936523438 1.5099999904632568
T Nodo053  154.2255096435547 -99.68119049072266 1.5099999904632568  154.32447814941406 -99.61434936523438 1.5099999904632568  154.3245391845703 -99.7225341796875 1.5099999904632568
T Nodo053  154.2255096435547 -99.5703353881836 1.5099999904632568  154.2255096435547 -99.47151184082031 1.5099999904632568  154.32421875 -99.50654602050781 1.5099999904632568
T Nodo053  154.2255096435547 -99.5703353881836 1.5099999904632568  154.32421875 -99.50654602050781 1.5099999904632568  154.32447814941406 -99.61434936523438 1.5099999904632568
T Nodo053  154.2255096435547 -99.47151184082031 1.5099999904632568  154.2255096435547 -99.35980224609375 1.5099999904632568  154.32327270507812 -99.3988265991211 1.5099999904632568
T Nodo053  154.2255096435547 -99.47151184082031 1.5099999904632568  154.32327270507812 -99.3988265991211 1.5099999904632568  154.32421875 -99.50654602050781 1.5099999904632568
T Nodo053  154.2255096435547 -99.35980224609375 1.5099999904632568  154.2255096435547 -99.25152587890625 1.5099999904632568  154.3181610107422 -99.29244232177734 1.5099999904632568
T Nodo053  154.2255096435547 -99.35980224609375 1.5099999904632568  154.3181610107422 -99.29244232177734 1.5099999904632568  154.32327270507812 -99.3988265991211 1.5099999904632568
T Nodo053  153.7235870361328 -100.25 1.5099999904632568  153.79708862304688 -100.07294464111328 1.5099999904632568  153.91249084472656 -100.19182586669922 1.5099999904632568
T Nodo053  153.79708862304688 -100.07294464111328 1.5099999904632568  153.9735870361328 -100.0 1.5099999904632568  153.91249084472656 -100.19182586669922 1.5099999904632568
T Nodo053  153.7235870361328 -101.1500015258789 1.5099999904632568  153.7235870361328 -100.79450225830078 1.5099999904632568  154.02615356445312 -100.91837310791016 1.5099999904632568
T Nodo053  153.79653930664062 -101.32649993896484 1.5099999904632568  153.7235870361328 -101.1500015258789 1.5099999904632568  153.97630310058594 -101.18785095214844 1.5099999904632568
T Nodo053  153.9735870361328 -101.4000015258789 1.5099999904632568  153.79653930664062 -101.32649993896484 1.5099999904632568  153.97630310058594 -101.18785095214844 1.5099999904632568
T Nodo053  153.7235870361328 -101.1500015258789 1.5099999904632568  154.02615356445312 -100.91837310791016 1.5099999904632568  153.97630310058594 -101.18785095214844 1.5099999904632568
T Nodo053  154.2255096435547 -103.5 1.5099999904632568  154.2255096435547 -103.39920043945312 1.5099999904632568  154.3257293701172 -103.45169067382812 1.5099999904632568
T Nodo053  154.2255096435547 -103.39920043945312 1.5099999904632568  154.2255096435547 -103.28579711914062 1.5099999904632568  154.32412719726562 -103.3421630859375 1.5099999904632568
T Nodo053  154.2255096435547 -103.39920043945312 1.5099999904632568  154.32412719726562 -103.3421630859375 1.5099999904632568  154.3257293701172 -103.45169067382812 1.5099999904632568
T Nodo053  154.2255096435547 -103.28579711914062 1.5099999904632568  154.2255096435547 -103.17240142822266 1.5099999904632568  154.3238525390625 -103.2294921875 1.5099999904632568
T Nodo053  154.2255096435547 -103.28579711914062 1.5099999904632568  154.3238525390625 -103.2294921875 1.5099999904632568  154.32412719726562 -103.3421630859375 1.5099999904632568
T Nodo053  154.2255096435547 -103.17240142822266 1.5099999904632568  154.2255096435547 -103.05690002441406 1.5099999904632568  154.32382202148438 -103.11628723144531 1.5099999904632568
T Nodo053  154.2255096435547 -103.05690002441406 1.5099999904632568  154.2255096435547 -102.95819854736328 1.5099999904632568  154.3238067626953 -103.00706481933594 1.5099999904632568
T Nodo053  154.2255096435547 -103.05690002441406 1.5099999904632568  154.3238067626953 -103.00706481933594 1.5099999904632568  154.32382202148438 -103.11628723144531 1.5099999904632568
T Nodo053  154.2255096435547 -102.95819854736328 1.5099999904632568  154.2255096435547 -102.84269714355469 1.5099999904632568  154.32383728027344 -102.89799499511719 1.5099999904632568
T Nodo053  154.2255096435547 -102.95819854736328 1.5099999904632568  154.32383728027344 -102.89799499511719 1.5099999904632568  154.3238067626953 -103.00706481933594 1.5099999904632568
T Nodo053  154.2255096435547 -102.84269714355469 1.5099999904632568  154.2255096435547 -102.72720336914062 1.5099999904632568  154.32386779785156 -102.7837905883789 1.5099999904632568
T Nodo053  154.2255096435547 -102.84269714355469 1.5099999904632568  154.32386779785156 -102.7837905883789 1.5099999904632568  154.32383728027344 -102.89799499511719 1.5099999904632568
T Nodo053  154.2255096435547 -102.72720336914062 1.5099999904632568  154.2255096435547 -102.61380004882812 1.5099999904632568  154.32388305664062 -102.66915893554688 1.5099999904632568
T Nodo053  154.2255096435547 -102.61380004882812 1.5099999904632568  154.2255096435547 -102.49829864501953 1.5099999904632568  154.32391357421875 -102.55540466308594 1.5099999904632568
T Nodo053  154.2255096435547 -102.49829864501953 1.5099999904632568  154.2255096435547 -102.39959716796875 1.5099999904632568  154.3239288330078 -102.44688415527344 1.5099999904632568
T Nodo053  154.2255096435547 -102.49829864501953 1.5099999904632568  154.3239288330078 -102.44688415527344 1.5099999904632568  154.32391357421875 -102.55540466308594 1.5099999904632568
T Nodo053  154.2255096435547 -102.39959716796875 1.5099999904632568  154.2255096435547 -102.28410339355469 1.5099999904632568  154.32394409179688 -102.3385009765625 1.5099999904632568
T Nodo053  154.2255096435547 -102.39959716796875 1.5099999904632568  154.32394409179688 -102.3385009765625 1.5099999904632568  154.3239288330078 -102.44688415527344 1.5099999904632568
T Nodo053  154.2255096435547 -102.28410339355469 1.5099999904632568  154.2255096435547 -102.17279815673828 1.5099999904632568  154.323974609375 -102.22573852539062 1.5099999904632568
T Nodo053  154.2255096435547 -102.17279815673828 1.5099999904632568  154.2255096435547 -102.05729675292969 1.5099999904632568  154.3240203857422 -102.1125259399414 1.5099999904632568
T Nodo053  154.2255096435547 -102.05729675292969 1.5099999904632568  154.2255096435547 -101.95649719238281 1.5099999904632568  154.32403564453125 -102.00328063964844 1.5099999904632568
T Nodo053  154.2255096435547 -102.05729675292969 1.5099999904632568  154.32403564453125 -102.00328063964844 1.5099999904632568  154.3240203857422 -102.1125259399414 1.5099999904632568
T Nodo053  154.2255096435547 -101.95649719238281 1.5099999904632568  154.2255096435547 -101.84100341796875 1.5099999904632568  154.32403564453125 -101.89439392089844 1.5099999904632568
T Nodo053  154.2255096435547 -101.95649719238281 1.5099999904632568  154.32403564453125 -101.89439392089844 1.5099999904632568  154.32403564453125 -102.00328063964844 1.5099999904632568
T Nodo053  154.2255096435547 -101.84100341796875 1.5099999904632568  154.2255096435547 -101.72760009765625 1.5099999904632568  154.32406616210938 -101.78121185302734 1.5099999904632568
T Nodo053  154.2255096435547 -101.84100341796875 1.5099999904632568  154.32406616210938 -101.78121185302734 1.5099999904632568  154.32403564453125 -101.89439392089844 1.5099999904632568
T Nodo053  154.2255096435547 -101.72760009765625 1.5099999904632568  154.2255096435547 -101.61630249023438 1.5099999904632568  154.32408142089844 -101.67010498046875 1.5099999904632568
T Nodo053  154.2255096435547 -101.61630249023438 1.5099999904632568  154.2255096435547 -101.51339721679688 1.5099999904632568  154.3240966796875 -101.56208038330078 1.5099999904632568
T Nodo053  154.2255096435547 -101.61630249023438 1.5099999904632568  154.3240966796875 -101.56208038330078 1.5099999904632568  154.32408142089844 -101.67010498046875 1.5099999904632568
T Nodo053  154.2255096435547 -101.51339721679688 1.5099999904632568  154.2255096435547 -101.4000015258789 1.5099999904632568  154.32415771484375 -101.45145416259766 1.5099999904632568
T Nodo053  154.2255096435547 -101.51339721679688 1.5099999904632568  154.32415771484375 -101.45145416259766 1.5099999904632568  154.3240966796875 -101.56208038330078 1.5099999904632568
T Nodo053  153.7235870361328 -103.75 1.5099999904632568  153.79708862304688 -103.57294464111328 1.5099999904632568  153.91598510742188 -103.7048110961914 1.5099999904632568
T Nodo053  153.79708862304688 -103.57294464111328 1.5099999904632568  153.9735870361328 -103.5 1.5099999904632568  153.91598510742188 -103.7048110961914 1.5099999904632568
T Nodo053  153.7235870361328 -104.6500015258789 1.5099999904632568  153.7235870361328 -104.23690032958984 1.5099999904632568  154.01219177246094 -104.43138122558594 1.5099999904632568
T Nodo053  154.67359924316406 -104.9000015258789 1.5099999904632568  154.3585968017578 -104.9000015258789 1.5099999904632568  154.48797607421875 -104.72277069091797 1.5099999904632568
T Nodo053  154.85037231445312 -104.82677459716797 1.5099999904632568  154.67359924316406 -104.9000015258789 1.5099999904632568  154.69947814941406 -104.7105941772461 1.5099999904632568
T Nodo053  154.92359924316406 -104.6500015258789 1.5099999904632568  154.85037231445312 -104.82677459716797 1.5099999904632568  154.69947814941406 -104.7105941772461 1.5099999904632568
T Nodo053  154.67359924316406 -104.9000015258789 1.5099999904632568  154.48797607421875 -104.72277069091797 1.5099999904632568  154.69947814941406 -104.7105941772461 1.5099999904632568
T Nodo053  154.92359924316406 -103.75 1.5099999904632568  154.92359924316406 -104.23870086669922 1.5099999904632568  154.55056762695312 -103.99503326416016 1.5099999904632568
T Nodo053  154.42274475097656 -101.4000015258789 1.5099999904632568  154.42271423339844 -101.5071029663086 1.5099999904632568  154.32415771484375 -101.45145416259766 1.5099999904632568
T Nodo053  154.42271423339844 -101.5071029663086 1.5099999904632568  154.42266845703125 -101.61419677734375 1.5099999904632568  154.3240966796875 -101.56208038330078 1.5099999904632568
T Nodo053  154.42266845703125 -101.61419677734375 1.5099999904632568  154.42262268066406 -101.71920013427734 1.5099999904632568  154.32408142089844 -101.67010498046875 1.5099999904632568
T Nodo053  154.42262268066406 -101.71920013427734 1.5099999904632568  154.42257690429688 -101.83470153808594 1.5099999904632568  154.32406616210938 -101.78121185302734 1.5099999904632568
T Nodo053  154.42257690429688 -101.83470153808594 1.5099999904632568  154.42254638671875 -101.95020294189453 1.5099999904632568  154.32403564453125 -101.89439392089844 1.5099999904632568
T Nodo053  154.42254638671875 -101.95020294189453 1.5099999904632568  154.42250061035156 -102.04889678955078 1.5099999904632568  154.32403564453125 -102.00328063964844 1.5099999904632568
T Nodo053  154.42250061035156 -102.04889678955078 1.5099999904632568  154.42245483398438 -102.16649627685547 1.5099999904632568  154.3240203857422 -102.1125259399414 1.5099999904632568
T Nodo053  154.42245483398438 -102.16649627685547 1.5099999904632568  154.4224090576172 -102.27989959716797 1.5099999904632568  154.323974609375 -102.22573852539062 1.5099999904632568
T Nodo053  154.4224090576172 -102.27989959716797 1.5099999904632568  154.42236328125 -102.39540100097656 1.5099999904632568  154.32394409179688 -102.3385009765625 1.5099999904632568
T Nodo053  154.42236328125 -102.39540100097656 1.5099999904632568  154.42233276367188 -102.49410247802734 1.5099999904632568  154.3239288330078 -102.44688415527344 1.5099999904632568
T Nodo053  154.42233276367188 -102.49410247802734 1.5099999904632568  154.4222869873047 -102.6095962524414 1.5099999904632568  154.32391357421875 -102.55540466308594 1.5099999904632568
T Nodo053  154.4222869873047 -102.6095962524414 1.5099999904632568  154.4222412109375 -102.72509765625 1.5099999904632568  154.32388305664062 -102.66915893554688 1.5099999904632568
T Nodo053  154.4222412109375 -102.72509765625 1.5099999904632568  154.4221954345703 -102.8405990600586 1.5099999904632568  154.32386779785156 -102.7837905883789 1.5099999904632568
T Nodo053  154.4221954345703 -102.8405990600586 1.5099999904632568  154.42214965820312 -102.95610046386719 1.5099999904632568  154.32383728027344 -102.89799499511719 1.5099999904632568
T Nodo053  154.42214965820312 -102.95610046386719 1.5099999904632568  154.422119140625 -103.05690002441406 1.5099999904632568  154.3238067626953 -103.00706481933594 1.5099999904632568
T Nodo053  154.422119140625 -103.05690002441406 1.5099999904632568  154.4220733642578 -103.17449951171875 1.5099999904632568  154.32382202148438 -103.11628723144531 1.5099999904632568
T Nodo053  154.4220733642578 -103.17449951171875 1.5099999904632568  154.42202758789062 -103.28579711914062 1.5099999904632568  154.3238525390625 -103.2294921875 1.5099999904632568
T Nodo053  154.42202758789062 -103.28579711914062 1.5099999904632568  154.42198181152344 -103.40129852294922 1.5099999904632568  154.32412719726562 -103.3421630859375 1.5099999904632568
T Nodo053  154.42198181152344 -103.40129852294922 1.5099999904632568  154.4219512939453 -103.5 1.5099999904632568  154.3257293701172 -103.45169067382812 1.5099999904632568
T Nodo053  154.92359924316406 -101.1500015258789 1.5099999904632568  154.84925842285156 -101.327880859375 1.5099999904632568  154.69032287597656 -101.21866607666016 1.5099999904632568
T Nodo053  154.84925842285156 -101.327880859375 1.5099999904632568  154.67359924316406 -101.4000015258789 1.5099999904632568  154.69032287597656 -101.21866607666016 1.5099999904632568
T Nodo053  154.92359924316406 -100.25 1.5099999904632568  154.92359924316406 -100.69190216064453 1.5099999904632568  154.58351135253906 -100.44937133789062 1.5099999904632568
T Nodo053  154.42359924316406 -99.20160675048828 1.5099999904632568  154.42355346679688 -99.32056427001953 1.5099999904632568  154.3181610107422 -99.29244232177734 1.5099999904632568
T Nodo053  154.42355346679688 -99.32056427001953 1.5099999904632568  154.4235076904297 -99.43952941894531 1.5099999904632568  154.32327270507812 -99.3988265991211 1.5099999904632568
T Nodo053  154.4235076904297 -99.43952941894531 1.5099999904632568  154.4234619140625 -99.54331970214844 1.5099999904632568  154.32421875 -99.50654602050781 1.5099999904632568
T Nodo053  154.4234619140625 -99.54331970214844 1.5099999904632568  154.4234161376953 -99.66068267822266 1.5099999904632568  154.32447814941406 -99.61434936523438 1.5099999904632568
T Nodo053  154.4234161376953 -99.66068267822266 1.5099999904632568  154.42337036132812 -99.76447296142578 1.5099999904632568  154.3245391845703 -99.7225341796875 1.5099999904632568
T Nodo053  154.42337036132812 -99.76447296142578 1.5099999904632568  154.42332458496094 -99.8818359375 1.5099999904632568  154.32496643066406 -99.83077239990234 1.5099999904632568
T Nodo053  155.3042449951172 -98.3182373046875 1.5099999904632568  155.22763061523438 -98.39509582519531 1.5099999904632568  155.1591796875 -98.33894348144531 1.5099999904632568
T Nodo053  155.22763061523438 -98.39509582519531 1.5099999904632568  155.14572143554688 -98.47724914550781 1.5099999904632568  155.1591796875 -98.33894348144531 1.5099999904632568
T Nodo053  155.14572143554688 -98.47724914550781 1.5099999904632568  155.0699920654297 -98.55321502685547 1.5099999904632568  155.00982666015625 -98.468505859375 1.5099999904632568
T Nodo053  155.0699920654297 -98.55321502685547 1.5099999904632568  154.9880828857422 -98.63536834716797 1.5099999904632568  154.91964721679688 -98.57234954833984 1.5099999904632568
T Nodo053  154.9880828857422 -98.63536834716797 1.5099999904632568  154.90618896484375 -98.71752166748047 1.5099999904632568  154.91964721679688 -98.57234954833984 1.5099999904632568
T Nodo053  154.90618896484375 -98.71752166748047 1.5099999904632568  154.8234100341797 -98.8005599975586 1.5099999904632568  154.816650390625 -98.66736602783203 1.5099999904632568
T Nodo053  154.8234100341797 -98.8005599975586 1.5099999904632568  154.74591064453125 -98.8782958984375 1.5099999904632568  154.734619140625 -98.74771881103516 1.5099999904632568
T Nodo053  154.74591064453125 -98.8782958984375 1.5099999904632568  154.66665649414062 -98.95779418945312 1.5099999904632568  154.6568145751953 -98.81928253173828 1.5099999904632568
T Nodo053  154.66665649414062 -98.95779418945312 1.5099999904632568  154.58474731445312 -99.03994750976562 1.5099999904632568  154.52748107910156 -98.95027160644531 1.5099999904632568
T Nodo053  154.58474731445312 -99.03994750976562 1.5099999904632568  154.50901794433594 -99.11592102050781 1.5099999904632568  154.43817138671875 -99.05146026611328 1.5099999904632568
T Nodo053  154.50901794433594 -99.11592102050781 1.5099999904632568  154.42359924316406 -99.20160675048828 1.5099999904632568  154.43817138671875 -99.05146026611328 1.5099999904632568
T Nodo053  155.3191680908203 -98.1500015258789 1.5099999904632568  155.3191680908203 -98.28219604492188 1.5099999904632568  155.2153778076172 -98.19375610351562 1.5099999904632568
T Nodo053  155.52108764648438 -98.0 1.5099999904632568  155.4776611328125 -98.1055679321289 1.5099999904632568  155.3566131591797 -98.04474639892578 1.5099999904632568
T Nodo053  155.4776611328125 -98.1055679321289 1.5099999904632568  155.37109375 -98.1500015258789 1.5099999904632568  155.3566131591797 -98.04474639892578 1.5099999904632568
T Nodo053  155.52108764648438 -96.65360260009766 1.5099999904632568  155.52108764648438 -97.34989929199219 1.5099999904632568  154.9210968017578 -96.69815063476562 1.5099999904632568
T Nodo053  155.52108764648438 -97.81189727783203 1.5099999904632568  155.52108764648438 -98.0 1.5099999904632568  155.3551025390625 -97.91209411621094 1.5099999904632568
T Nodo053  155.52108764648438 -98.0 1.5099999904632568  155.3566131591797 -98.04474639892578 1.5099999904632568  155.3551025390625 -97.91209411621094 1.5099999904632568
T Nodo053  155.37109375 -96.19999694824219 1.5099999904632568  155.47732543945312 -96.24410247802734 1.5099999904632568  155.39501953125 -96.30640411376953 1.5099999904632568
T Nodo053  155.47732543945312 -96.24410247802734 1.5099999904632568  155.52108764648438 -96.3499984741211 1.5099999904632568  155.39501953125 -96.30640411376953 1.5099999904632568
T Nodo053  155.0710906982422 -96.19999694824219 1.5099999904632568  155.22378540039062 -96.19999694824219 1.5099999904632568  155.16229248046875 -96.31281280517578 1.5099999904632568
T Nodo053  155.0710906982422 -96.19999694824219 1.5099999904632568  155.16229248046875 -96.31281280517578 1.5099999904632568  155.03941345214844 -96.30854797363281 1.5099999904632568
T Nodo053  155.22378540039062 -96.19999694824219 1.5099999904632568  155.37109375 -96.19999694824219 1.5099999904632568  155.2886199951172 -96.29218292236328 1.5099999904632568
T Nodo053  155.16229248046875 -96.31281280517578 1.5099999904632568  155.22378540039062 -96.19999694824219 1.5099999904632568  155.2886199951172 -96.29218292236328 1.5099999904632568
T Nodo053  155.37109375 -96.19999694824219 1.5099999904632568  155.39501953125 -96.30640411376953 1.5099999904632568  155.2886199951172 -96.29218292236328 1.5099999904632568
T Nodo053  154.9210968017578 -97.39115142822266 1.5099999904632568  155.52108764648438 -97.34989929199219 1.5099999904632568  155.52108764648438 -97.81189727783203 1.5099999904632568
T Nodo053  155.1212158203125 -98.1500015258789 1.5099999904632568  155.1172637939453 -98.10367584228516 1.5099999904632568  155.18589782714844 -98.11701202392578 1.5099999904632568
T Nodo053  154.3179473876953 -99.02689361572266 1.5099999904632568  154.43817138671875 -99.05146026611328 1.5099999904632568  154.3162384033203 -99.12670135498047 1.5099999904632568
T Nodo053  154.41217041015625 -98.932373046875 1.5099999904632568  154.52748107910156 -98.95027160644531 1.5099999904632568  154.43817138671875 -99.05146026611328 1.5099999904632568
T Nodo053  154.2255096435547 -99.88829040527344 1.5099999904632568  154.32496643066406 -99.83077239990234 1.5099999904632568  154.32728576660156 -99.94222259521484 1.5099999904632568
T Nodo053  154.2255096435547 -100.0 1.5099999904632568  154.2255096435547 -99.88829040527344 1.5099999904632568  154.32728576660156 -99.94222259521484 1.5099999904632568
T Nodo053  154.32496643066406 -99.83077239990234 1.5099999904632568  154.42332458496094 -99.8818359375 1.5099999904632568  154.32728576660156 -99.94222259521484 1.5099999904632568
T Nodo053  154.2255096435547 -99.25152587890625 1.5099999904632568  154.2255096435547 -99.14067840576172 1.5099999904632568  154.29917907714844 -99.20459747314453 1.5099999904632568
T Nodo053  154.2255096435547 -103.5 1.5099999904632568  154.3257293701172 -103.45169067382812 1.5099999904632568  154.33546447753906 -103.56776428222656 1.5099999904632568
T Nodo053  154.3257293701172 -103.45169067382812 1.5099999904632568  154.4219512939453 -103.5 1.5099999904632568  154.33546447753906 -103.56776428222656 1.5099999904632568
T Nodo053  154.2255096435547 -103.17240142822266 1.5099999904632568  154.32382202148438 -103.11628723144531 1.5099999904632568  154.3238525390625 -103.2294921875 1.5099999904632568
T Nodo053  154.2255096435547 -102.72720336914062 1.5099999904632568  154.32388305664062 -102.66915893554688 1.5099999904632568  154.32386779785156 -102.7837905883789 1.5099999904632568
T Nodo053  154.32388305664062 -102.66915893554688 1.5099999904632568  154.2255096435547 -102.61380004882812 1.5099999904632568  154.32391357421875 -102.55540466308594 1.5099999904632568
T Nodo053  154.32394409179688 -102.3385009765625 1.5099999904632568  154.2255096435547 -102.28410339355469 1.5099999904632568  154.323974609375 -102.22573852539062 1.5099999904632568
T Nodo053  154.323974609375 -102.22573852539062 1.5099999904632568  154.2255096435547 -102.17279815673828 1.5099999904632568  154.3240203857422 -102.1125259399414 1.5099999904632568
T Nodo053  154.2255096435547 -101.72760009765625 1.5099999904632568  154.32408142089844 -101.67010498046875 1.5099999904632568  154.32406616210938 -101.78121185302734 1.5099999904632568
T Nodo053  154.32415771484375 -101.45145416259766 1.5099999904632568  154.2255096435547 -101.4000015258789 1.5099999904632568  154.3240966796875 -101.32305145263672 1.5099999904632568
T Nodo053  154.32415771484375 -101.45145416259766 1.5099999904632568  154.3240966796875 -101.32305145263672 1.5099999904632568  154.42274475097656 -101.4000015258789 1.5099999904632568
T Nodo053  153.7235870361328 -104.23690032958984 1.5099999904632568  153.7235870361328 -103.75 1.5099999904632568  154.0559539794922 -104.00885772705078 1.5099999904632568
T Nodo053  153.9735870361328 -104.9000015258789 1.5099999904632568  153.79653930664062 -104.82649993896484 1.5099999904632568  153.94227600097656 -104.69649505615234 1.5099999904632568
T Nodo053  153.79653930664062 -104.82649993896484 1.5099999904632568  153.7235870361328 -104.6500015258789 1.5099999904632568  153.94227600097656 -104.69649505615234 1.5099999904632568
T Nodo053  154.3585968017578 -104.9000015258789 1.5099999904632568  153.9735870361328 -104.9000015258789 1.5099999904632568  154.21202087402344 -104.67807006835938 1.5099999904632568
T Nodo053  154.48797607421875 -104.72277069091797 1.5099999904632568  154.3585968017578 -104.9000015258789 1.5099999904632568  154.21202087402344 -104.67807006835938 1.5099999904632568
T Nodo053  153.9735870361328 -104.9000015258789 1.5099999904632568  153.94227600097656 -104.69649505615234 1.5099999904632568  154.21202087402344 -104.67807006835938 1.5099999904632568
T Nodo053  154.32415771484375 -101.45145416259766 1.5099999904632568  154.42271423339844 -101.5071029663086 1.5099999904632568  154.3240966796875 -101.56208038330078 1.5099999904632568
T Nodo053  153.7235870361328 -104.23690032958984 1.5099999904632568  154.0559539794922 -104.00885772705078 1.5099999904632568  154.01219177246094 -104.43138122558594 1.5099999904632568
T Nodo053  154.92359924316406 -104.23870086669922 1.5099999904632568  154.92359924316406 -104.6500015258789 1.5099999904632568  154.5218048095703 -104.42664337158203 1.5099999904632568
T Nodo053  154.67359924316406 -103.5 1.5099999904632568  154.85037231445312 -103.5732192993164 1.5099999904632568  154.66226196289062 -103.70458984375 1.5099999904632568
T Nodo053  154.85037231445312 -103.5732192993164 1.5099999904632568  154.92359924316406 -103.75 1.5099999904632568  154.66226196289062 -103.70458984375 1.5099999904632568
T Nodo053  154.42266845703125 -101.61419677734375 1.5099999904632568  154.32408142089844 -101.67010498046875 1.5099999904632568  154.3240966796875 -101.56208038330078 1.5099999904632568
T Nodo053  154.42262268066406 -101.71920013427734 1.5099999904632568  154.32406616210938 -101.78121185302734 1.5099999904632568  154.32408142089844 -101.67010498046875 1.5099999904632568
T Nodo053  154.42257690429688 -101.83470153808594 1.5099999904632568  154.32403564453125 -101.89439392089844 1.5099999904632568  154.32406616210938 -101.78121185302734 1.5099999904632568
T Nodo053  154.42254638671875 -101.95020294189453 1.5099999904632568  154.32403564453125 -102.00328063964844 1.5099999904632568  154.32403564453125 -101.89439392089844 1.5099999904632568
T Nodo053  154.42250061035156 -102.04889678955078 1.5099999904632568  154.3240203857422 -102.1125259399414 1.5099999904632568  154.32403564453125 -102.00328063964844 1.5099999904632568
T Nodo053  154.42245483398438 -102.16649627685547 1.5099999904632568  154.323974609375 -102.22573852539062 1.5099999904632568  154.3240203857422 -102.1125259399414 1.5099999904632568
T Nodo053  154.4224090576172 -102.27989959716797 1.5099999904632568  154.32394409179688 -102.3385009765625 1.5099999904632568  154.323974609375 -102.22573852539062 1.5099999904632568
T Nodo053  154.42236328125 -102.39540100097656 1.5099999904632568  154.3239288330078 -102.44688415527344 1.5099999904632568  154.32394409179688 -102.3385009765625 1.5099999904632568
T Nodo053  154.42233276367188 -102.49410247802734 1.5099999904632568  154.32391357421875 -102.55540466308594 1.5099999904632568  154.3239288330078 -102.44688415527344 1.5099999904632568
T Nodo053  154.4222869873047 -102.6095962524414 1.5099999904632568  154.32388305664062 -102.66915893554688 1.5099999904632568  154.32391357421875 -102.55540466308594 1.5099999904632568
T Nodo053  154.4222412109375 -102.72509765625 1.5099999904632568  154.32386779785156 -102.7837905883789 1.5099999904632568  154.32388305664062 -102.66915893554688 1.5099999904632568
T Nodo053  154.4221954345703 -102.8405990600586 1.5099999904632568  154.32383728027344 -102.89799499511719 1.5099999904632568  154.32386779785156 -102.7837905883789 1.5099999904632568
T Nodo053  154.42214965820312 -102.95610046386719 1.5099999904632568  154.3238067626953 -103.00706481933594 1.5099999904632568  154.32383728027344 -102.89799499511719 1.5099999904632568
T Nodo053  154.422119140625 -103.05690002441406 1.5099999904632568  154.32382202148438 -103.11628723144531 1.5099999904632568  154.3238067626953 -103.00706481933594 1.5099999904632568
T Nodo053  154.4220733642578 -103.17449951171875 1.5099999904632568  154.3238525390625 -103.2294921875 1.5099999904632568  154.32382202148438 -103.11628723144531 1.5099999904632568
T Nodo053  154.42202758789062 -103.28579711914062 1.5099999904632568  154.32412719726562 -103.3421630859375 1.5099999904632568  154.3238525390625 -103.2294921875 1.5099999904632568
T Nodo053  154.42198181152344 -103.40129852294922 1.5099999904632568  154.3257293701172 -103.45169067382812 1.5099999904632568  154.32412719726562 -103.3421630859375 1.5099999904632568
T Nodo053  154.92359924316406 -100.69190216064453 1.5099999904632568  154.92359924316406 -101.1500015258789 1.5099999904632568  154.47174072265625 -100.94225311279297 1.5099999904632568
T Nodo053  154.67359924316406 -100.0 1.5099999904632568  154.85037231445312 -100.0732192993164 1.5099999904632568  154.69873046875 -100.18836975097656 1.5099999904632568
T Nodo053  154.85037231445312 -100.0732192993164 1.5099999904632568  154.92359924316406 -100.25 1.5099999904632568  154.69873046875 -100.18836975097656 1.5099999904632568
T Nodo053  154.42355346679688 -99.32056427001953 1.5099999904632568  154.32327270507812 -99.3988265991211 1.5099999904632568  154.3181610107422 -99.29244232177734 1.5099999904632568
T Nodo053  154.4235076904297 -99.43952941894531 1.5099999904632568  154.32421875 -99.50654602050781 1.5099999904632568  154.32327270507812 -99.3988265991211 1.5099999904632568
T Nodo053  154.4234619140625 -99.54331970214844 1.5099999904632568  154.32447814941406 -99.61434936523438 1.5099999904632568  154.32421875 -99.50654602050781 1.5099999904632568
T Nodo053  154.4234161376953 -99.66068267822266 1.5099999904632568  154.3245391845703 -99.7225341796875 1.5099999904632568  154.32447814941406 -99.61434936523438 1.5099999904632568
T Nodo053  154.42337036132812 -99.76447296142578 1.5099999904632568  154.32496643066406 -99.83077239990234 1.5099999904632568  154.3245391845703 -99.7225341796875 1.5099999904632568
T Nodo053  154.42332458496094 -99.8818359375 1.5099999904632568  154.42327880859375 -100.0 1.5099999904632568  154.32728576660156 -99.94222259521484 1.5099999904632568
T Nodo053  155.00982666015625 -98.468505859375 1.5099999904632568  155.0699920654297 -98.55321502685547 1.5099999904632568  154.91964721679688 -98.57234954833984 1.5099999904632568
T Nodo053  154.91964721679688 -98.57234954833984 1.5099999904632568  154.90618896484375 -98.71752166748047 1.5099999904632568  154.816650390625 -98.66736602783203 1.5099999904632568
T Nodo053  154.816650390625 -98.66736602783203 1.5099999904632568  154.8234100341797 -98.8005599975586 1.5099999904632568  154.734619140625 -98.74771881103516 1.5099999904632568
T Nodo053  154.74591064453125 -98.8782958984375 1.5099999904632568  154.6568145751953 -98.81928253173828 1.5099999904632568  154.734619140625 -98.74771881103516 1.5099999904632568
T Nodo053  154.58474731445312 -99.03994750976562 1.5099999904632568  154.43817138671875 -99.05146026611328 1.5099999904632568  154.52748107910156 -98.95027160644531 1.5099999904632568
T Nodo053  154.43817138671875 -99.05146026611328 1.5099999904632568  154.42359924316406 -99.20160675048828 1.5099999904632568  154.3162384033203 -99.12670135498047 1.5099999904632568
T Nodo053  154.33546447753906 -103.56776428222656 1.5099999904632568  154.4219512939453 -103.5 1.5099999904632568  154.47695922851562 -103.62506103515625 1.5099999904632568
T Nodo053  154.42274475097656 -101.4000015258789 1.5099999904632568  154.3240966796875 -101.32305145263672 1.5099999904632568  154.48171997070312 -101.2485122680664 1.5099999904632568
T Nodo053  154.92359924316406 -104.23870086669922 1.5099999904632568  154.5218048095703 -104.42664337158203 1.5099999904632568  154.55056762695312 -103.99503326416016 1.5099999904632568
T Nodo053  154.2255096435547 -100.0 1.5099999904632568  154.32728576660156 -99.94222259521484 1.5099999904632568  154.33978271484375 -100.05194854736328 1.5099999904632568
T Nodo053  154.32728576660156 -99.94222259521484 1.5099999904632568  154.42327880859375 -100.0 1.5099999904632568  154.33978271484375 -100.05194854736328 1.5099999904632568
T Nodo053  154.92359924316406 -100.69190216064453 1.5099999904632568  154.47174072265625 -100.94225311279297 1.5099999904632568  154.58351135253906 -100.44937133789062 1.5099999904632568
T Nodo053  154.33978271484375 -100.05194854736328 1.5099999904632568  154.42327880859375 -100.0 1.5099999904632568  154.46054077148438 -100.15975189208984 1.5099999904632568
T Nodo053  154.09695434570312 -103.74322509765625 1.5099999904632568  154.22142028808594 -103.64545440673828 1.5099999904632568  154.28350830078125 -103.81739807128906 1.5099999904632568
T Nodo053  155.1632843017578 -97.94832611083984 1.5099999904632568  154.9210968017578 -97.81849670410156 1.5099999904632568  155.18063354492188 -97.77214813232422 1.5099999904632568
T Nodo053  155.18589782714844 -98.11701202392578 1.5099999904632568  155.1172637939453 -98.10367584228516 1.5099999904632568  155.15440368652344 -98.05480194091797 1.5099999904632568
T Nodo053  154.9210968017578 -97.81849670410156 1.5099999904632568  154.9210968017578 -97.39115142822266 1.5099999904632568  155.18063354492188 -97.77214813232422 1.5099999904632568
T Nodo053  154.33546447753906 -103.56776428222656 1.5099999904632568  154.47695922851562 -103.62506103515625 1.5099999904632568  154.3565673828125 -103.6871337890625 1.5099999904632568
T Nodo053  155.0710906982422 -98.1500015258789 1.5099999904632568  154.99923706054688 -98.13167572021484 1.5099999904632568  155.0663604736328 -98.06056213378906 1.5099999904632568
T Nodo053  154.99923706054688 -98.13167572021484 1.5099999904632568  154.9210968017578 -98.0 1.5099999904632568  155.0663604736328 -98.06056213378906 1.5099999904632568
T Nodo053  155.12109375 -98.22126007080078 1.5099999904632568  155.2153778076172 -98.19375610351562 1.5099999904632568  155.22360229492188 -98.27273559570312 1.5099999904632568
T Nodo053  155.1591796875 -98.33894348144531 1.5099999904632568  155.12109375 -98.22126007080078 1.5099999904632568  155.22360229492188 -98.27273559570312 1.5099999904632568
T Nodo053  154.29917907714844 -99.20459747314453 1.5099999904632568  154.2255096435547 -99.14067840576172 1.5099999904632568  154.3162384033203 -99.12670135498047 1.5099999904632568
T Nodo053  153.7235870361328 -100.25 1.5099999904632568  153.91249084472656 -100.19182586669922 1.5099999904632568  153.93943786621094 -100.40084838867188 1.5099999904632568
T Nodo053  154.3181610107422 -99.29244232177734 1.5099999904632568  154.2255096435547 -99.25152587890625 1.5099999904632568  154.29917907714844 -99.20459747314453 1.5099999904632568
T Nodo053  153.91249084472656 -100.19182586669922 1.5099999904632568  153.9735870361328 -100.0 1.5099999904632568  154.11695861816406 -100.22406005859375 1.5099999904632568
T Nodo053  154.2255096435547 -103.5 1.5099999904632568  154.33546447753906 -103.56776428222656 1.5099999904632568  154.22142028808594 -103.64545440673828 1.5099999904632568
T Nodo053  154.33546447753906 -103.56776428222656 1.5099999904632568  154.3565673828125 -103.6871337890625 1.5099999904632568  154.22142028808594 -103.64545440673828 1.5099999904632568
T Nodo053  153.9735870361328 -100.0 1.5099999904632568  154.2255096435547 -100.0 1.5099999904632568  154.11695861816406 -100.22406005859375 1.5099999904632568
T Nodo053  154.02615356445312 -100.91837310791016 1.5099999904632568  153.7235870361328 -100.79450225830078 1.5099999904632568  154.18301391601562 -100.5693359375 1.5099999904632568
T Nodo053  153.7235870361328 -100.79450225830078 1.5099999904632568  153.7235870361328 -100.25 1.5099999904632568  153.93943786621094 -100.40084838867188 1.5099999904632568
T Nodo053  154.55056762695312 -103.99503326416016 1.5099999904632568  154.5218048095703 -104.42664337158203 1.5099999904632568  154.0559539794922 -104.00885772705078 1.5099999904632568
T Nodo053  154.01219177246094 -104.43138122558594 1.5099999904632568  154.0559539794922 -104.00885772705078 1.5099999904632568  154.5218048095703 -104.42664337158203 1.5099999904632568
T Nodo053  153.91598510742188 -103.7048110961914 1.5099999904632568  153.9735870361328 -103.5 1.5099999904632568  154.09695434570312 -103.74322509765625 1.5099999904632568
T Nodo053  154.92359924316406 -103.75 1.5099999904632568  154.55056762695312 -103.99503326416016 1.5099999904632568  154.66226196289062 -103.70458984375 1.5099999904632568
T Nodo053  155.1632843017578 -97.94832611083984 1.5099999904632568  155.18063354492188 -97.77214813232422 1.5099999904632568  155.3551025390625 -97.91209411621094 1.5099999904632568
T Nodo053  154.67359924316406 -103.5 1.5099999904632568  154.66226196289062 -103.70458984375 1.5099999904632568  154.47695922851562 -103.62506103515625 1.5099999904632568
T Nodo053  155.1632843017578 -97.94832611083984 1.5099999904632568  155.3551025390625 -97.91209411621094 1.5099999904632568  155.3566131591797 -98.04474639892578 1.5099999904632568
T Nodo053  154.4219512939453 -103.5 1.5099999904632568  154.67359924316406 -103.5 1.5099999904632568  154.47695922851562 -103.62506103515625 1.5099999904632568
T Nodo053  154.33978271484375 -100.05194854736328 1.5099999904632568  154.46054077148438 -100.15975189208984 1.5099999904632568  154.2862091064453 -100.15785217285156 1.5099999904632568
T Nodo053  154.33978271484375 -100.05194854736328 1.5099999904632568  154.2862091064453 -100.15785217285156 1.5099999904632568  154.2255096435547 -100.0 1.5099999904632568
T Nodo053  154.67359924316406 -100.0 1.5099999904632568  154.69873046875 -100.18836975097656 1.5099999904632568  154.46054077148438 -100.15975189208984 1.5099999904632568
T Nodo053  154.42327880859375 -100.0 1.5099999904632568  154.67359924316406 -100.0 1.5099999904632568  154.46054077148438 -100.15975189208984 1.5099999904632568
T Nodo053  155.1591796875 -98.33894348144531 1.5099999904632568  155.14572143554688 -98.47724914550781 1.5099999904632568  155.06759643554688 -98.3894271850586 1.5099999904632568
T Nodo053  153.93943786621094 -100.40084838867188 1.5099999904632568  153.91249084472656 -100.19182586669922 1.5099999904632568  154.11695861816406 -100.22406005859375 1.5099999904632568
T Nodo053  154.66665649414062 -98.95779418945312 1.5099999904632568  154.52748107910156 -98.95027160644531 1.5099999904632568  154.5812530517578 -98.87084197998047 1.5099999904632568
T Nodo053  155.06759643554688 -98.3894271850586 1.5099999904632568  155.14572143554688 -98.47724914550781 1.5099999904632568  155.00982666015625 -98.468505859375 1.5099999904632568
T Nodo053  154.66665649414062 -98.95779418945312 1.5099999904632568  154.5812530517578 -98.87084197998047 1.5099999904632568  154.6568145751953 -98.81928253173828 1.5099999904632568
T Nodo053  155.0663604736328 -98.06056213378906 1.5099999904632568  154.9210968017578 -98.0 1.5099999904632568  155.1632843017578 -97.94832611083984 1.5099999904632568
T Nodo053  154.18301391601562 -100.5693359375 1.5099999904632568  153.7235870361328 -100.79450225830078 1.5099999904632568  153.93943786621094 -100.40084838867188 1.5099999904632568
T Nodo053  154.18301391601562 -100.5693359375 1.5099999904632568  153.93943786621094 -100.40084838867188 1.5099999904632568  154.11695861816406 -100.22406005859375 1.5099999904632568
T Nodo053  154.02615356445312 -100.91837310791016 1.5099999904632568  154.18301391601562 -100.5693359375 1.5099999904632568  154.47174072265625 -100.94225311279297 1.5099999904632568
T Nodo053  154.01219177246094 -104.43138122558594 1.5099999904632568  154.5218048095703 -104.42664337158203 1.5099999904632568  154.21202087402344 -104.67807006835938 1.5099999904632568
T Nodo053  155.52108764648438 -96.3499984741211 1.5099999904632568  155.52108764648438 -96.65360260009766 1.5099999904632568  155.30258178710938 -96.44750213623047 1.5099999904632568
T Nodo053  155.1212158203125 -98.1500015258789 1.5099999904632568  155.18589782714844 -98.11701202392578 1.5099999904632568  155.2153778076172 -98.19375610351562 1.5099999904632568
T Nodo053  154.9210968017578 -96.3499984741211 1.5099999904632568  155.03941345214844 -96.30854797363281 1.5099999904632568  155.07041931152344 -96.42743682861328 1.5099999904632568
T Nodo053  154.47174072265625 -100.94225311279297 1.5099999904632568  154.18301391601562 -100.5693359375 1.5099999904632568  154.58351135253906 -100.44937133789062 1.5099999904632568
T Nodo053  155.2153778076172 -98.19375610351562 1.5099999904632568  155.18589782714844 -98.11701202392578 1.5099999904632568  155.3191680908203 -98.1500015258789 1.5099999904632568
T Nodo053  155.07041931152344 -96.42743682861328 1.5099999904632568  155.03941345214844 -96.30854797363281 1.5099999904632568  155.16229248046875 -96.31281280517578 1.5099999904632568
T Nodo053  154.48171997070312 -101.2485122680664 1.5099999904632568  154.3240966796875 -101.32305145263672 1.5099999904632568  154.32200622558594 -101.17691040039062 1.5099999904632568
T Nodo053  154.69032287597656 -101.21866607666016 1.5099999904632568  154.67359924316406 -101.4000015258789 1.5099999904632568  154.48171997070312 -101.2485122680664 1.5099999904632568
T Nodo053  154.48171997070312 -101.2485122680664 1.5099999904632568  154.67359924316406 -101.4000015258789 1.5099999904632568  154.42274475097656 -101.4000015258789 1.5099999904632568
T Nodo053  155.3191680908203 -98.1500015258789 1.5099999904632568  155.18589782714844 -98.11701202392578 1.5099999904632568  155.2371368408203 -98.06082916259766 1.5099999904632568
T Nodo053  154.3162384033203 -99.12670135498047 1.5099999904632568  154.42359924316406 -99.20160675048828 1.5099999904632568  154.29917907714844 -99.20459747314453 1.5099999904632568
T Nodo053  155.07041931152344 -96.42743682861328 1.5099999904632568  155.16229248046875 -96.31281280517578 1.5099999904632568  155.30258178710938 -96.44750213623047 1.5099999904632568
T Nodo053  154.29917907714844 -99.20459747314453 1.5099999904632568  154.42359924316406 -99.20160675048828 1.5099999904632568  154.3181610107422 -99.29244232177734 1.5099999904632568
T Nodo053  155.0710906982422 -98.1500015258789 1.5099999904632568  155.0663604736328 -98.06056213378906 1.5099999904632568  155.1172637939453 -98.10367584228516 1.5099999904632568
T Nodo053  154.9210968017578 -96.69815063476562 1.5099999904632568  154.9210968017578 -96.3499984741211 1.5099999904632568  155.07041931152344 -96.42743682861328 1.5099999904632568
T Nodo053  155.30258178710938 -96.44750213623047 1.5099999904632568  155.52108764648438 -96.65360260009766 1.5099999904632568  154.9210968017578 -96.69815063476562 1.5099999904632568
T Nodo053  154.02615356445312 -100.91837310791016 1.5099999904632568  154.47174072265625 -100.94225311279297 1.5099999904632568  154.17596435546875 -101.0893325805664 1.5099999904632568
T Nodo053  155.3191680908203 -98.1500015258789 1.5099999904632568  155.2371368408203 -98.06082916259766 1.5099999904632568  155.3566131591797 -98.04474639892578 1.5099999904632568
T Nodo053  154.2255096435547 -99.14067840576172 1.5099999904632568  154.24044799804688 -99.10462951660156 1.5099999904632568  154.3162384033203 -99.12670135498047 1.5099999904632568
T Nodo053  155.1172637939453 -98.10367584228516 1.5099999904632568  155.0663604736328 -98.06056213378906 1.5099999904632568  155.15440368652344 -98.05480194091797 1.5099999904632568
T Nodo053  154.9210968017578 -96.69815063476562 1.5099999904632568  155.07041931152344 -96.42743682861328 1.5099999904632568  155.30258178710938 -96.44750213623047 1.5099999904632568
T Nodo053  155.1632843017578 -97.94832611083984 1.5099999904632568  155.2371368408203 -98.06082916259766 1.5099999904632568  155.15440368652344 -98.05480194091797 1.5099999904632568
T Nodo053  153.9735870361328 -101.4000015258789 1.5099999904632568  153.97630310058594 -101.18785095214844 1.5099999904632568  154.17425537109375 -101.25831604003906 1.5099999904632568
T Nodo053  153.91598510742188 -103.7048110961914 1.5099999904632568  154.09695434570312 -103.74322509765625 1.5099999904632568  154.0559539794922 -104.00885772705078 1.5099999904632568
T Nodo053  154.2255096435547 -101.4000015258789 1.5099999904632568  153.9735870361328 -101.4000015258789 1.5099999904632568  154.17425537109375 -101.25831604003906 1.5099999904632568
T Nodo053  154.3240966796875 -101.32305145263672 1.5099999904632568  154.2255096435547 -101.4000015258789 1.5099999904632568  154.17425537109375 -101.25831604003906 1.5099999904632568
T Nodo053  154.0559539794922 -104.00885772705078 1.5099999904632568  153.7235870361328 -103.75 1.5099999904632568  153.91598510742188 -103.7048110961914 1.5099999904632568
T Nodo053  153.7235870361328 -104.6500015258789 1.5099999904632568  154.01219177246094 -104.43138122558594 1.5099999904632568  153.94227600097656 -104.69649505615234 1.5099999904632568
T Nodo053  154.21202087402344 -104.67807006835938 1.5099999904632568  153.94227600097656 -104.69649505615234 1.5099999904632568  154.01219177246094 -104.43138122558594 1.5099999904632568
T Nodo053  154.92359924316406 -104.6500015258789 1.5099999904632568  154.69947814941406 -104.7105941772461 1.5099999904632568  154.5218048095703 -104.42664337158203 1.5099999904632568
T Nodo053  155.2371368408203 -98.06082916259766 1.5099999904632568  155.18589782714844 -98.11701202392578 1.5099999904632568  155.15440368652344 -98.05480194091797 1.5099999904632568
T Nodo053  154.92359924316406 -100.25 1.5099999904632568  154.58351135253906 -100.44937133789062 1.5099999904632568  154.69873046875 -100.18836975097656 1.5099999904632568
T Nodo053  155.3042449951172 -98.3182373046875 1.5099999904632568  155.1591796875 -98.33894348144531 1.5099999904632568  155.22360229492188 -98.27273559570312 1.5099999904632568
T Nodo053  155.2153778076172 -98.19375610351562 1.5099999904632568  155.3191680908203 -98.28219604492188 1.5099999904632568  155.22360229492188 -98.27273559570312 1.5099999904632568
T Nodo053  155.3191680908203 -98.28219604492188 1.5099999904632568  155.3042449951172 -98.3182373046875 1.5099999904632568  155.22360229492188 -98.27273559570312 1.5099999904632568
T Nodo053  155.37109375 -98.1500015258789 1.5099999904632568  155.3191680908203 -98.1500015258789 1.5099999904632568  155.3566131591797 -98.04474639892578 1.5099999904632568
T Nodo053  154.5218048095703 -104.42664337158203 1.5099999904632568  154.69947814941406 -104.7105941772461 1.5099999904632568  154.48797607421875 -104.72277069091797 1.5099999904632568
T Nodo053  154.3240966796875 -101.32305145263672 1.5099999904632568  154.17425537109375 -101.25831604003906 1.5099999904632568  154.32200622558594 -101.17691040039062 1.5099999904632568
T Nodo053  154.69873046875 -100.18836975097656 1.5099999904632568  154.58351135253906 -100.44937133789062 1.5099999904632568  154.46054077148438 -100.15975189208984 1.5099999904632568
T Nodo053  154.46786499023438 -103.77164459228516 1.5099999904632568  154.55056762695312 -103.99503326416016 1.5099999904632568  154.28350830078125 -103.81739807128906 1.5099999904632568
T Nodo053  153.97630310058594 -101.18785095214844 1.5099999904632568  154.02615356445312 -100.91837310791016 1.5099999904632568  154.17596435546875 -101.0893325805664 1.5099999904632568
T Nodo053  155.30258178710938 -96.44750213623047 1.5099999904632568  155.16229248046875 -96.31281280517578 1.5099999904632568  155.2886199951172 -96.29218292236328 1.5099999904632568
T Nodo053  154.5218048095703 -104.42664337158203 1.5099999904632568  154.48797607421875 -104.72277069091797 1.5099999904632568  154.21202087402344 -104.67807006835938 1.5099999904632568
T Nodo053  154.3565673828125 -103.6871337890625 1.5099999904632568  154.28350830078125 -103.81739807128906 1.5099999904632568  154.22142028808594 -103.64545440673828 1.5099999904632568
T Nodo053  154.17596435546875 -101.0893325805664 1.5099999904632568  154.47174072265625 -100.94225311279297 1.5099999904632568  154.32200622558594 -101.17691040039062 1.5099999904632568
T Nodo053  155.3566131591797 -98.04474639892578 1.5099999904632568  155.2371368408203 -98.06082916259766 1.5099999904632568  155.1632843017578 -97.94832611083984 1.5099999904632568
T Nodo053  154.3565673828125 -103.6871337890625 1.5099999904632568  154.47695922851562 -103.62506103515625 1.5099999904632568  154.46786499023438 -103.77164459228516 1.5099999904632568
T Nodo053  154.47695922851562 -103.62506103515625 1.5099999904632568  154.66226196289062 -103.70458984375 1.5099999904632568  154.46786499023438 -103.77164459228516 1.5099999904632568
T Nodo053  154.18301391601562 -100.5693359375 1.5099999904632568  154.11695861816406 -100.22406005859375 1.5099999904632568  154.324951171875 -100.3209228515625 1.5099999904632568
T Nodo053  155.52108764648438 -96.3499984741211 1.5099999904632568  155.30258178710938 -96.44750213623047 1.5099999904632568  155.39501953125 -96.30640411376953 1.5099999904632568
T Nodo053  154.09695434570312 -103.74322509765625 1.5099999904632568  153.9735870361328 -103.5 1.5099999904632568  154.22142028808594 -103.64545440673828 1.5099999904632568
T Nodo053  154.66226196289062 -103.70458984375 1.5099999904632568  154.55056762695312 -103.99503326416016 1.5099999904632568  154.46786499023438 -103.77164459228516 1.5099999904632568
T Nodo053  153.9735870361328 -103.5 1.5099999904632568  154.2255096435547 -103.5 1.5099999904632568  154.22142028808594 -103.64545440673828 1.5099999904632568
T Nodo053  155.52108764648438 -97.81189727783203 1.5099999904632568  155.3551025390625 -97.91209411621094 1.5099999904632568  155.18063354492188 -97.77214813232422 1.5099999904632568
T Nodo053  154.92359924316406 -101.1500015258789 1.5099999904632568  154.69032287597656 -101.21866607666016 1.5099999904632568  154.47174072265625 -100.94225311279297 1.5099999904632568
T Nodo053  154.47174072265625 -100.94225311279297 1.5099999904632568  154.69032287597656 -101.21866607666016 1.5099999904632568  154.48171997070312 -101.2485122680664 1.5099999904632568
T Nodo053  154.9210968017578 -97.39115142822266 1.5099999904632568  155.52108764648438 -97.81189727783203 1.5099999904632568  155.18063354492188 -97.77214813232422 1.5099999904632568
T Nodo053  154.0559539794922 -104.00885772705078 1.5099999904632568  154.09695434570312 -103.74322509765625 1.5099999904632568  154.28350830078125 -103.81739807128906 1.5099999904632568
T Nodo053  155.15440368652344 -98.05480194091797 1.5099999904632568  155.0663604736328 -98.06056213378906 1.5099999904632568  155.1632843017578 -97.94832611083984 1.5099999904632568
T Nodo053  154.55056762695312 -103.99503326416016 1.5099999904632568  154.0559539794922 -104.00885772705078 1.5099999904632568  154.28350830078125 -103.81739807128906 1.5099999904632568
T Nodo053  154.324951171875 -100.3209228515625 1.5099999904632568  154.11695861816406 -100.22406005859375 1.5099999904632568  154.2862091064453 -100.15785217285156 1.5099999904632568
T Nodo053  155.39501953125 -96.30640411376953 1.5099999904632568  155.30258178710938 -96.44750213623047 1.5099999904632568  155.2886199951172 -96.29218292236328 1.5099999904632568
T Nodo053  154.47174072265625 -100.94225311279297 1.5099999904632568  154.48171997070312 -101.2485122680664 1.5099999904632568  154.32200622558594 -101.17691040039062 1.5099999904632568
T Nodo053  154.2862091064453 -100.15785217285156 1.5099999904632568  154.46054077148438 -100.15975189208984 1.5099999904632568  154.324951171875 -100.3209228515625 1.5099999904632568
T Nodo053  154.46054077148438 -100.15975189208984 1.5099999904632568  154.58351135253906 -100.44937133789062 1.5099999904632568  154.324951171875 -100.3209228515625 1.5099999904632568
T Nodo053  154.11695861816406 -100.22406005859375 1.5099999904632568  154.2255096435547 -100.0 1.5099999904632568  154.2862091064453 -100.15785217285156 1.5099999904632568
T Nodo053  154.17425537109375 -101.25831604003906 1.5099999904632568  153.97630310058594 -101.18785095214844 1.5099999904632568  154.17596435546875 -101.0893325805664 1.5099999904632568
T Nodo053  154.32200622558594 -101.17691040039062 1.5099999904632568  154.17425537109375 -101.25831604003906 1.5099999904632568  154.17596435546875 -101.0893325805664 1.5099999904632568
T Nodo053  154.3565673828125 -103.6871337890625 1.5099999904632568  154.46786499023438 -103.77164459228516 1.5099999904632568  154.28350830078125 -103.81739807128906 1.5099999904632568
T Nodo053  154.58351135253906 -100.44937133789062 1.5099999904632568  154.18301391601562 -100.5693359375 1.5099999904632568  154.324951171875 -100.3209228515625 1.5099999904632568
T Nodo053  155.3191680908203 -98.1500015258789 1.5099999904632568  155.37109375 -98.1500015258789 1.5099999904632568  155.37109375 -98.1500015258789 1.5499999523162842
T Nodo053  155.10438537597656 -98.1500015258789 1.5499999523162842  155.0710906982422 -98.1500015258789 1.5499999523162842  155.0710906982422 -98.1500015258789 1.5099999904632568
T Nodo053  155.0710906982422 -98.1500015258789 1.5099999904632568  155.1212158203125 -98.1500015258789 1.5099999904632568  155.1212158203125 -98.1500015258789 1.5449999570846558
T Nodo053  155.37109375 -98.1500015258789 1.5499999523162842  155.33749389648438 -98.1500015258789 1.5499999523162842  155.3191680908203 -98.1500015258789 1.5099999904632568
T Nodo053  155.33749389648438 -98.1500015258789 1.5499999523162842  155.30419921875 -98.1500015258789 1.5499999523162842  155.3191680908203 -98.1500015258789 1.5449999570846558
T Nodo053  155.30419921875 -98.1500015258789 1.5499999523162842  155.27088928222656 -98.1500015258789 1.5499999523162842  155.28631591796875 -98.1500015258789 1.5449999570846558
T Nodo053  155.27088928222656 -98.1500015258789 1.5499999523162842  155.2375946044922 -98.1500015258789 1.5499999523162842  155.2532501220703 -98.1500015258789 1.5449999570846558
T Nodo053  155.2375946044922 -98.1500015258789 1.5499999523162842  155.20428466796875 -98.1500015258789 1.5499999523162842  155.22019958496094 -98.1500015258789 1.5449999570846558
T Nodo053  155.20428466796875 -98.1500015258789 1.5499999523162842  155.17098999023438 -98.1500015258789 1.5499999523162842  155.1873321533203 -98.1500015258789 1.5449999570846558
T Nodo053  155.17098999023438 -98.1500015258789 1.5499999523162842  155.1376953125 -98.1500015258789 1.5499999523162842  155.15428161621094 -98.1500015258789 1.5449999570846558
T Nodo053  155.1376953125 -98.1500015258789 1.5499999523162842  155.10438537597656 -98.1500015258789 1.5499999523162842  155.1212158203125 -98.1500015258789 1.5449999570846558
T Nodo053  155.33749389648438 -98.1500015258789 1.5499999523162842  155.3191680908203 -98.1500015258789 1.5449999570846558  155.3191680908203 -98.1500015258789 1.5099999904632568
T Nodo053  155.1212158203125 -98.1500015258789 1.5449999570846558  155.10438537597656 -98.1500015258789 1.5499999523162842  155.0710906982422 -98.1500015258789 1.5099999904632568
T Nodo053  155.22019958496094 -98.1500015258789 1.5449999570846558  155.20428466796875 -98.1500015258789 1.5499999523162842  155.1873321533203 -98.1500015258789 1.5449999570846558
T Nodo053  155.3191680908203 -98.1500015258789 1.5449999570846558  155.30419921875 -98.1500015258789 1.5499999523162842  155.28631591796875 -98.1500015258789 1.5449999570846558
T Nodo053  155.27088928222656 -98.1500015258789 1.5499999523162842  155.2532501220703 -98.1500015258789 1.5449999570846558  155.28631591796875 -98.1500015258789 1.5449999570846558
T Nodo053  155.2375946044922 -98.1500015258789 1.5499999523162842  155.22019958496094 -98.1500015258789 1.5449999570846558  155.2532501220703 -98.1500015258789 1.5449999570846558
T Nodo053  155.17098999023438 -98.1500015258789 1.5499999523162842  155.15428161621094 -98.1500015258789 1.5449999570846558  155.1873321533203 -98.1500015258789 1.5449999570846558
T Nodo053  155.1376953125 -98.1500015258789 1.5499999523162842  155.1212158203125 -98.1500015258789 1.5449999570846558  155.15428161621094 -98.1500015258789 1.5449999570846558
T Nodo053  154.96502685546875 -96.24393463134766 1.5499999523162842  154.9210968017578 -96.3499984741211 1.5499999523162842  155.04452514648438 -96.30433654785156 1.5499999523162842
T Nodo053  154.96502685546875 -96.24393463134766 1.5499999523162842  155.04452514648438 -96.30433654785156 1.5499999523162842  155.0710906982422 -96.19999694824219 1.5499999523162842
T Nodo053  155.2165985107422 -96.19999694824219 1.5499999523162842  155.0710906982422 -96.19999694824219 1.5499999523162842  155.14759826660156 -96.29011535644531 1.5499999523162842
T Nodo053  155.0710906982422 -96.19999694824219 1.5499999523162842  155.04452514648438 -96.30433654785156 1.5499999523162842  155.14759826660156 -96.29011535644531 1.5499999523162842
T Nodo053  155.37109375 -96.19999694824219 1.5499999523162842  155.2165985107422 -96.19999694824219 1.5499999523162842  155.27113342285156 -96.31584167480469 1.5499999523162842
T Nodo053  155.2165985107422 -96.19999694824219 1.5499999523162842  155.14759826660156 -96.29011535644531 1.5499999523162842  155.27113342285156 -96.31584167480469 1.5499999523162842
T Nodo053  155.47732543945312 -96.24410247802734 1.5499999523162842  155.37109375 -96.19999694824219 1.5499999523162842  155.3983154296875 -96.31281280517578 1.5499999523162842
T Nodo053  155.52108764648438 -96.3499984741211 1.5499999523162842  155.47732543945312 -96.24410247802734 1.5499999523162842  155.3983154296875 -96.31281280517578 1.5499999523162842
T Nodo053  155.37109375 -96.19999694824219 1.5499999523162842  155.27113342285156 -96.31584167480469 1.5499999523162842  155.3983154296875 -96.31281280517578 1.5499999523162842
T Nodo053  155.52108764648438 -97.45384979248047 1.5499999523162842  155.52108764648438 -96.97039794921875 1.5499999523162842  154.9210968017578 -97.12055206298828 1.5499999523162842
T Nodo053  155.52108764648438 -98.0 1.5499999523162842  155.52108764648438 -97.8052978515625 1.5499999523162842  155.31195068359375 -97.89444732666016 1.5499999523162842
T Nodo053  155.47698974609375 -98.10623168945312 1.5499999523162842  155.52108764648438 -98.0 1.5499999523162842  155.345947265625 -98.04360961914062 1.5499999523162842
T Nodo053  155.37109375 -98.1500015258789 1.5499999523162842  155.47698974609375 -98.10623168945312 1.5499999523162842  155.345947265625 -98.04360961914062 1.5499999523162842
T Nodo053  155.52108764648438 -98.0 1.5499999523162842  155.31195068359375 -97.89444732666016 1.5499999523162842  155.345947265625 -98.04360961914062 1.5499999523162842
T Nodo053  155.2093963623047 -98.1500015258789 1.5499999523162842  155.37109375 -98.1500015258789 1.5499999523162842  155.345947265625 -98.04360961914062 1.5499999523162842
T Nodo053  155.0710906982422 -98.1500015258789 1.5499999523162842  155.2093963623047 -98.1500015258789 1.5499999523162842  155.1755828857422 -98.02704620361328 1.5499999523162842
T Nodo053  154.96502685546875 -98.10606384277344 1.5499999523162842  155.0710906982422 -98.1500015258789 1.5499999523162842  155.04478454589844 -98.034912109375 1.5499999523162842
T Nodo053  154.9210968017578 -98.0 1.5499999523162842  154.96502685546875 -98.10606384277344 1.5499999523162842  155.04478454589844 -98.034912109375 1.5499999523162842
T Nodo053  155.0710906982422 -98.1500015258789 1.5499999523162842  155.1755828857422 -98.02704620361328 1.5499999523162842  155.04478454589844 -98.034912109375 1.5499999523162842
T Nodo053  155.52108764648438 -96.56285095214844 1.5499999523162842  155.52108764648438 -96.3499984741211 1.5499999523162842  155.3539276123047 -96.44884490966797 1.5499999523162842
T Nodo053  155.52108764648438 -96.97039794921875 1.5499999523162842  155.52108764648438 -96.56285095214844 1.5499999523162842  155.2431640625 -96.68505096435547 1.5499999523162842
T Nodo053  155.2093963623047 -98.1500015258789 1.5499999523162842  155.345947265625 -98.04360961914062 1.5499999523162842  155.1755828857422 -98.02704620361328 1.5499999523162842
T Nodo053  155.52108764648438 -97.8052978515625 1.5499999523162842  155.52108764648438 -97.45384979248047 1.5499999523162842  155.227294921875 -97.66641998291016 1.5499999523162842
T Nodo053  154.9210968017578 -97.76899719238281 1.5499999523162842  154.9210968017578 -98.0 1.5499999523162842  155.08969116210938 -97.8946762084961 1.5499999523162842
T Nodo053  154.9210968017578 -97.12055206298828 1.5499999523162842  154.9210968017578 -97.76899719238281 1.5499999523162842  155.227294921875 -97.66641998291016 1.5499999523162842
T Nodo053  154.9210968017578 -96.3499984741211 1.5499999523162842  154.9210968017578 -96.61399841308594 1.5499999523162842  155.1242218017578 -96.43395233154297 1.5499999523162842
T Nodo053  155.52108764648438 -97.45384979248047 1.5499999523162842  154.9210968017578 -97.12055206298828 1.5499999523162842  155.227294921875 -97.66641998291016 1.5499999523162842
T Nodo053  155.227294921875 -97.66641998291016 1.5499999523162842  154.9210968017578 -97.76899719238281 1.5499999523162842  155.08969116210938 -97.8946762084961 1.5499999523162842
T Nodo053  155.1242218017578 -96.43395233154297 1.5499999523162842  154.9210968017578 -96.61399841308594 1.5499999523162842  155.2431640625 -96.68505096435547 1.5499999523162842
T Nodo053  155.31195068359375 -97.89444732666016 1.5499999523162842  155.52108764648438 -97.8052978515625 1.5499999523162842  155.227294921875 -97.66641998291016 1.5499999523162842
T Nodo053  155.1755828857422 -98.02704620361328 1.5499999523162842  155.345947265625 -98.04360961914062 1.5499999523162842  155.31195068359375 -97.89444732666016 1.5499999523162842
T Nodo053  155.52108764648438 -96.56285095214844 1.5499999523162842  155.3539276123047 -96.44884490966797 1.5499999523162842  155.2431640625 -96.68505096435547 1.5499999523162842
T Nodo053  154.9210968017578 -96.3499984741211 1.5499999523162842  155.1242218017578 -96.43395233154297 1.5499999523162842  155.04452514648438 -96.30433654785156 1.5499999523162842
T Nodo053  154.9210968017578 -96.61399841308594 1.5499999523162842  154.9210968017578 -97.12055206298828 1.5499999523162842  155.2431640625 -96.68505096435547 1.5499999523162842
T Nodo053  155.2431640625 -96.68505096435547 1.5499999523162842  154.9210968017578 -97.12055206298828 1.5499999523162842  155.52108764648438 -96.97039794921875 1.5499999523162842
T Nodo053  155.04452514648438 -96.30433654785156 1.5499999523162842  155.1242218017578 -96.43395233154297 1.5499999523162842  155.14759826660156 -96.29011535644531 1.5499999523162842
T Nodo053  155.52108764648438 -96.3499984741211 1.5499999523162842  155.3983154296875 -96.31281280517578 1.5499999523162842  155.3539276123047 -96.44884490966797 1.5499999523162842
T Nodo053  155.27113342285156 -96.31584167480469 1.5499999523162842  155.14759826660156 -96.29011535644531 1.5499999523162842  155.1242218017578 -96.43395233154297 1.5499999523162842
T Nodo053  155.3983154296875 -96.31281280517578 1.5499999523162842  155.27113342285156 -96.31584167480469 1.5499999523162842  155.3539276123047 -96.44884490966797 1.5499999523162842
T Nodo053  155.3539276123047 -96.44884490966797 1.5499999523162842  155.27113342285156 -96.31584167480469 1.5499999523162842  155.1242218017578 -96.43395233154297 1.5499999523162842
T Nodo053  155.227294921875 -97.66641998291016 1.5499999523162842  155.08969116210938 -97.8946762084961 1.5499999523162842  155.31195068359375 -97.89444732666016 1.5499999523162842
T Nodo053  155.1242218017578 -96.43395233154297 1.5499999523162842  155.2431640625 -96.68505096435547 1.5499999523162842  155.3539276123047 -96.44884490966797 1.5499999523162842
T Nodo053  155.08969116210938 -97.8946762084961 1.5499999523162842  154.9210968017578 -98.0 1.5499999523162842  155.04478454589844 -98.034912109375 1.5499999523162842
T Nodo053  155.04478454589844 -98.034912109375 1.5499999523162842  155.1755828857422 -98.02704620361328 1.5499999523162842  155.08969116210938 -97.8946762084961 1.5499999523162842
T Nodo053  155.1755828857422 -98.02704620361328 1.5499999523162842  155.31195068359375 -97.89444732666016 1.5499999523162842  155.08969116210938 -97.8946762084961 1.5499999523162842
T Nodo053  155.3191680908203 -98.28219604492188 1.5449999570846558  155.3191680908203 -98.1500015258789 1.5449999570846558  155.22019958496094 -98.1500015258789 1.5449999570846558
T Nodo053  155.22019958496094 -98.1500015258789 1.5449999570846558  155.1212158203125 -98.1500015258789 1.5449999570846558  155.12109375 -98.22126007080078 1.5449999570846558
T Nodo053  155.22019958496094 -98.1500015258789 1.5449999570846558  155.12109375 -98.22126007080078 1.5449999570846558  155.20523071289062 -98.29093933105469 1.5449999570846558
T Nodo053  155.3191680908203 -98.28219604492188 1.5449999570846558  155.22019958496094 -98.1500015258789 1.5449999570846558  155.20523071289062 -98.29093933105469 1.5449999570846558
T Nodo053  155.12109375 -98.22126007080078 1.5449999570846558  155.04270935058594 -98.29988098144531 1.5449999570846558  155.20523071289062 -98.29093933105469 1.5449999570846558
T Nodo053  154.3100128173828 -99.03484344482422 1.5449999570846558  154.24044799804688 -99.10462951660156 1.5449999570846558  154.33067321777344 -99.11273193359375 1.5449999570846558
T Nodo053  154.3795928955078 -98.96505737304688 1.5449999570846558  154.3100128173828 -99.03484344482422 1.5449999570846558  154.4009552001953 -99.07136535644531 1.5449999570846558
T Nodo053  154.3100128173828 -99.03484344482422 1.5449999570846558  154.33067321777344 -99.11273193359375 1.5449999570846558  154.4009552001953 -99.07136535644531 1.5449999570846558
T Nodo053  154.45973205566406 -98.8846664428711 1.5449999570846558  154.3795928955078 -98.96505737304688 1.5449999570846558  154.47280883789062 -99.00878143310547 1.5449999570846558
T Nodo053  154.3795928955078 -98.96505737304688 1.5449999570846558  154.4009552001953 -99.07136535644531 1.5449999570846558  154.47280883789062 -99.00878143310547 1.5449999570846558
T Nodo053  154.529296875 -98.81488037109375 1.5449999570846558  154.45973205566406 -98.8846664428711 1.5449999570846558  154.54840087890625 -98.93547821044922 1.5449999570846558
T Nodo053  154.45973205566406 -98.8846664428711 1.5449999570846558  154.47280883789062 -99.00878143310547 1.5449999570846558  154.54840087890625 -98.93547821044922 1.5449999570846558
T Nodo053  154.60768127441406 -98.73626708984375 1.5449999570846558  154.529296875 -98.81488037109375 1.5449999570846558  154.62171936035156 -98.86247253417969 1.5449999570846558
T Nodo053  154.529296875 -98.81488037109375 1.5449999570846558  154.54840087890625 -98.93547821044922 1.5449999570846558  154.62171936035156 -98.86247253417969 1.5449999570846558
T Nodo053  154.67636108398438 -98.6673583984375 1.5449999570846558  154.60768127441406 -98.73626708984375 1.5449999570846558  154.69699096679688 -98.78711700439453 1.5449999570846558
T Nodo053  154.60768127441406 -98.73626708984375 1.5449999570846558  154.62171936035156 -98.86247253417969 1.5449999570846558  154.69699096679688 -98.78711700439453 1.5449999570846558
T Nodo053  154.74594116210938 -98.59757232666016 1.5449999570846558  154.67636108398438 -98.6673583984375 1.5449999570846558  154.7689971923828 -98.71490478515625 1.5449999570846558
T Nodo053  154.67636108398438 -98.6673583984375 1.5449999570846558  154.69699096679688 -98.78711700439453 1.5449999570846558  154.7689971923828 -98.71490478515625 1.5449999570846558
T Nodo053  154.82431030273438 -98.51895904541016 1.5449999570846558  154.74594116210938 -98.59757232666016 1.5449999570846558  154.84109497070312 -98.64287567138672 1.5449999570846558
T Nodo053  154.74594116210938 -98.59757232666016 1.5449999570846558  154.7689971923828 -98.71490478515625 1.5449999570846558  154.84109497070312 -98.64287567138672 1.5449999570846558
T Nodo053  154.89389038085938 -98.44917297363281 1.5449999570846558  154.82431030273438 -98.51895904541016 1.5449999570846558  154.91925048828125 -98.5658187866211 1.5449999570846558
T Nodo053  154.82431030273438 -98.51895904541016 1.5449999570846558  154.84109497070312 -98.64287567138672 1.5449999570846558  154.91925048828125 -98.5658187866211 1.5449999570846558
T Nodo053  154.9634552001953 -98.37938690185547 1.5449999570846558  154.89389038085938 -98.44917297363281 1.5449999570846558  155.0129852294922 -98.48377227783203 1.5449999570846558
T Nodo053  154.89389038085938 -98.44917297363281 1.5449999570846558  154.91925048828125 -98.5658187866211 1.5449999570846558  155.0129852294922 -98.48377227783203 1.5449999570846558
T Nodo053  155.04270935058594 -98.29988098144531 1.5449999570846558  154.9634552001953 -98.37938690185547 1.5449999570846558  155.09793090820312 -98.38903045654297 1.5449999570846558
T Nodo053  154.9634552001953 -98.37938690185547 1.5449999570846558  155.0129852294922 -98.48377227783203 1.5449999570846558  155.09793090820312 -98.38903045654297 1.5449999570846558
T Nodo053  154.2255096435547 -99.90375518798828 1.5449999570846558  154.2255096435547 -100.0 1.5449999570846558  154.30462646484375 -100.0 1.5449999570846558
T Nodo053  154.2255096435547 -99.8083724975586 1.5449999570846558  154.2255096435547 -99.90375518798828 1.5449999570846558  154.32188415527344 -99.86060333251953 1.5449999570846558
T Nodo053  154.2255096435547 -99.71298217773438 1.5449999570846558  154.2255096435547 -99.8083724975586 1.5449999570846558  154.32388305664062 -99.75759887695312 1.5449999570846558
T Nodo053  154.2255096435547 -99.8083724975586 1.5449999570846558  154.32188415527344 -99.86060333251953 1.5449999570846558  154.32388305664062 -99.75759887695312 1.5449999570846558
T Nodo053  154.2255096435547 -99.61759948730469 1.5449999570846558  154.2255096435547 -99.71298217773438 1.5449999570846558  154.32431030273438 -99.65889739990234 1.5449999570846558
T Nodo053  154.2255096435547 -99.71298217773438 1.5449999570846558  154.32388305664062 -99.75759887695312 1.5449999570846558  154.32431030273438 -99.65889739990234 1.5449999570846558
T Nodo053  154.2255096435547 -99.522216796875 1.5449999570846558  154.2255096435547 -99.61759948730469 1.5449999570846558  154.32435607910156 -99.56108093261719 1.5449999570846558
T Nodo053  154.2255096435547 -99.61759948730469 1.5449999570846558  154.32431030273438 -99.65889739990234 1.5449999570846558  154.32435607910156 -99.56108093261719 1.5449999570846558
T Nodo053  154.2255096435547 -99.42682647705078 1.5449999570846558  154.2255096435547 -99.522216796875 1.5449999570846558  154.32406616210938 -99.46346282958984 1.5449999570846558
T Nodo053  154.2255096435547 -99.522216796875 1.5449999570846558  154.32435607910156 -99.56108093261719 1.5449999570846558  154.32406616210938 -99.46346282958984 1.5449999570846558
T Nodo053  154.2255096435547 -99.3314437866211 1.5449999570846558  154.2255096435547 -99.42682647705078 1.5449999570846558  154.32264709472656 -99.36585235595703 1.5449999570846558
T Nodo053  154.2255096435547 -99.42682647705078 1.5449999570846558  154.32406616210938 -99.46346282958984 1.5449999570846558  154.32264709472656 -99.36585235595703 1.5449999570846558
T Nodo053  154.2255096435547 -99.2360610961914 1.5449999570846558  154.2255096435547 -99.3314437866211 1.5449999570846558  154.31651306152344 -99.26822662353516 1.5449999570846558
T Nodo053  154.2255096435547 -99.3314437866211 1.5449999570846558  154.32264709472656 -99.36585235595703 1.5449999570846558  154.31651306152344 -99.26822662353516 1.5449999570846558
T Nodo053  154.30462646484375 -100.0 1.5449999570846558  154.42327880859375 -100.0 1.5449999570846558  154.42332458496094 -99.9010009765625 1.5449999570846558
T Nodo053  154.42355346679688 -99.30220031738281 1.5449999570846558  154.42359924316406 -99.20160675048828 1.5449999570846558  154.31651306152344 -99.26822662353516 1.5449999570846558
T Nodo053  154.4235076904297 -99.4020004272461 1.5449999570846558  154.42355346679688 -99.30220031738281 1.5449999570846558  154.32264709472656 -99.36585235595703 1.5449999570846558
T Nodo053  154.42347717285156 -99.50180053710938 1.5449999570846558  154.4235076904297 -99.4020004272461 1.5449999570846558  154.32406616210938 -99.46346282958984 1.5449999570846558
T Nodo053  154.42343139648438 -99.60160064697266 1.5449999570846558  154.42347717285156 -99.50180053710938 1.5449999570846558  154.32435607910156 -99.56108093261719 1.5449999570846558
T Nodo053  154.42340087890625 -99.70140075683594 1.5449999570846558  154.42343139648438 -99.60160064697266 1.5449999570846558  154.32431030273438 -99.65889739990234 1.5449999570846558
T Nodo053  154.42335510253906 -99.80120086669922 1.5449999570846558  154.42340087890625 -99.70140075683594 1.5449999570846558  154.32388305664062 -99.75759887695312 1.5449999570846558
T Nodo053  154.42332458496094 -99.9010009765625 1.5449999570846558  154.42335510253906 -99.80120086669922 1.5449999570846558  154.32188415527344 -99.86060333251953 1.5449999570846558
T Nodo053  155.21705627441406 -98.40569305419922 1.5449999570846558  155.20523071289062 -98.29093933105469 1.5449999570846558  155.09793090820312 -98.38903045654297 1.5449999570846558
T Nodo053  155.08055114746094 -98.54261779785156 1.5449999570846558  155.1483612060547 -98.47459411621094 1.5449999570846558  155.0129852294922 -98.48377227783203 1.5449999570846558
T Nodo053  155.01187133789062 -98.61151885986328 1.5449999570846558  155.08055114746094 -98.54261779785156 1.5449999570846558  155.0129852294922 -98.48377227783203 1.5449999570846558
T Nodo053  154.9290771484375 -98.6945571899414 1.5449999570846558  155.01187133789062 -98.61151885986328 1.5449999570846558  154.91925048828125 -98.5658187866211 1.5449999570846558
T Nodo053  154.86126708984375 -98.7625732421875 1.5449999570846558  154.9290771484375 -98.6945571899414 1.5449999570846558  154.84109497070312 -98.64287567138672 1.5449999570846558
T Nodo053  154.79258728027344 -98.83147430419922 1.5449999570846558  154.86126708984375 -98.7625732421875 1.5449999570846558  154.7689971923828 -98.71490478515625 1.5449999570846558
T Nodo053  154.70980834960938 -98.91451263427734 1.5449999570846558  154.79258728027344 -98.83147430419922 1.5449999570846558  154.69699096679688 -98.78711700439453 1.5449999570846558
T Nodo053  154.64199829101562 -98.98252868652344 1.5449999570846558  154.70980834960938 -98.91451263427734 1.5449999570846558  154.62171936035156 -98.86247253417969 1.5449999570846558
T Nodo053  154.56008911132812 -99.06468200683594 1.5449999570846558  154.64199829101562 -98.98252868652344 1.5449999570846558  154.54840087890625 -98.93547821044922 1.5449999570846558
T Nodo053  154.4914093017578 -99.13358306884766 1.5449999570846558  154.56008911132812 -99.06468200683594 1.5449999570846558  154.47280883789062 -99.00878143310547 1.5449999570846558
T Nodo053  154.42359924316406 -99.20160675048828 1.5449999570846558  154.4914093017578 -99.13358306884766 1.5449999570846558  154.4009552001953 -99.07136535644531 1.5449999570846558
T Nodo053  154.2255096435547 -99.90375518798828 1.5449999570846558  154.30462646484375 -100.0 1.5449999570846558  154.32188415527344 -99.86060333251953 1.5449999570846558
T Nodo053  154.30462646484375 -100.0 1.5449999570846558  154.42332458496094 -99.9010009765625 1.5449999570846558  154.32188415527344 -99.86060333251953 1.5449999570846558
T Nodo053  154.32406616210938 -99.46346282958984 1.5449999570846558  154.4235076904297 -99.4020004272461 1.5449999570846558  154.32264709472656 -99.36585235595703 1.5449999570846558
T Nodo053  155.20523071289062 -98.29093933105469 1.5449999570846558  155.04270935058594 -98.29988098144531 1.5449999570846558  155.09793090820312 -98.38903045654297 1.5449999570846558
T Nodo053  154.32264709472656 -99.36585235595703 1.5449999570846558  154.42355346679688 -99.30220031738281 1.5449999570846558  154.31651306152344 -99.26822662353516 1.5449999570846558
T Nodo053  154.2255096435547 -99.14067840576172 1.5449999570846558  154.2255096435547 -99.2360610961914 1.5449999570846558  154.28872680664062 -99.17285919189453 1.5449999570846558
T Nodo053  154.2255096435547 -99.2360610961914 1.5449999570846558  154.31651306152344 -99.26822662353516 1.5449999570846558  154.28872680664062 -99.17285919189453 1.5449999570846558
T Nodo053  154.42347717285156 -99.50180053710938 1.5449999570846558  154.32406616210938 -99.46346282958984 1.5449999570846558  154.32435607910156 -99.56108093261719 1.5449999570846558
T Nodo053  154.42343139648438 -99.60160064697266 1.5449999570846558  154.32435607910156 -99.56108093261719 1.5449999570846558  154.32431030273438 -99.65889739990234 1.5449999570846558
T Nodo053  154.42340087890625 -99.70140075683594 1.5449999570846558  154.32431030273438 -99.65889739990234 1.5449999570846558  154.32388305664062 -99.75759887695312 1.5449999570846558
T Nodo053  154.42335510253906 -99.80120086669922 1.5449999570846558  154.32388305664062 -99.75759887695312 1.5449999570846558  154.32188415527344 -99.86060333251953 1.5449999570846558
T Nodo053  154.9290771484375 -98.6945571899414 1.5449999570846558  154.91925048828125 -98.5658187866211 1.5449999570846558  154.84109497070312 -98.64287567138672 1.5449999570846558
T Nodo053  155.01187133789062 -98.61151885986328 1.5449999570846558  155.0129852294922 -98.48377227783203 1.5449999570846558  154.91925048828125 -98.5658187866211 1.5449999570846558
T Nodo053  154.86126708984375 -98.7625732421875 1.5449999570846558  154.84109497070312 -98.64287567138672 1.5449999570846558  154.7689971923828 -98.71490478515625 1.5449999570846558
T Nodo053  154.79258728027344 -98.83147430419922 1.5449999570846558  154.7689971923828 -98.71490478515625 1.5449999570846558  154.69699096679688 -98.78711700439453 1.5449999570846558
T Nodo053  154.70980834960938 -98.91451263427734 1.5449999570846558  154.69699096679688 -98.78711700439453 1.5449999570846558  154.62171936035156 -98.86247253417969 1.5449999570846558
T Nodo053  154.64199829101562 -98.98252868652344 1.5449999570846558  154.62171936035156 -98.86247253417969 1.5449999570846558  154.54840087890625 -98.93547821044922 1.5449999570846558
T Nodo053  154.56008911132812 -99.06468200683594 1.5449999570846558  154.54840087890625 -98.93547821044922 1.5449999570846558  154.47280883789062 -99.00878143310547 1.5449999570846558
T Nodo053  154.4914093017578 -99.13358306884766 1.5449999570846558  154.47280883789062 -99.00878143310547 1.5449999570846558  154.4009552001953 -99.07136535644531 1.5449999570846558
T Nodo053  154.42359924316406 -99.20160675048828 1.5449999570846558  154.4009552001953 -99.07136535644531 1.5449999570846558  154.33067321777344 -99.11273193359375 1.5449999570846558
T Nodo053  154.24044799804688 -99.10462951660156 1.5449999570846558  154.2255096435547 -99.14067840576172 1.5449999570846558  154.28872680664062 -99.17285919189453 1.5449999570846558
T Nodo053  154.31651306152344 -99.26822662353516 1.5449999570846558  154.42359924316406 -99.20160675048828 1.5449999570846558  154.28872680664062 -99.17285919189453 1.5449999570846558
T Nodo053  155.09793090820312 -98.38903045654297 1.5449999570846558  155.1483612060547 -98.47459411621094 1.5449999570846558  155.21705627441406 -98.40569305419922 1.5449999570846558
T Nodo053  154.33067321777344 -99.11273193359375 1.5449999570846558  154.24044799804688 -99.10462951660156 1.5449999570846558  154.28872680664062 -99.17285919189453 1.5449999570846558
T Nodo053  154.42359924316406 -99.20160675048828 1.5449999570846558  154.33067321777344 -99.11273193359375 1.5449999570846558  154.28872680664062 -99.17285919189453 1.5449999570846558
T Nodo053  155.3042449951172 -98.3182373046875 1.5449999570846558  155.3191680908203 -98.28219604492188 1.5449999570846558  155.20523071289062 -98.29093933105469 1.5449999570846558
T Nodo053  155.0129852294922 -98.48377227783203 1.5449999570846558  155.1483612060547 -98.47459411621094 1.5449999570846558  155.09793090820312 -98.38903045654297 1.5449999570846558
T Nodo053  155.3042449951172 -98.3182373046875 1.5449999570846558  155.20523071289062 -98.29093933105469 1.5449999570846558  155.21705627441406 -98.40569305419922 1.5449999570846558
T Nodo053  154.00634765625 -100.0 1.5099999904632568  153.9735870361328 -100.0 1.5099999904632568  153.9735870361328 -100.0 1.5499999523162842
T Nodo053  154.0436248779297 -100.0 1.5099999904632568  154.00634765625 -100.0 1.5099999904632568  154.00929260253906 -100.0 1.5499999523162842
T Nodo053  154.08091735839844 -100.0 1.5099999904632568  154.0436248779297 -100.0 1.5099999904632568  154.0449981689453 -100.0 1.5499999523162842
T Nodo053  154.11366271972656 -100.0 1.5099999904632568  154.08091735839844 -100.0 1.5099999904632568  154.08628845214844 -100.0 1.5499999523162842
T Nodo053  154.15093994140625 -100.0 1.5099999904632568  154.11366271972656 -100.0 1.5099999904632568  154.12408447265625 -100.0 1.5499999523162842
T Nodo053  154.188232421875 -100.0 1.5099999904632568  154.15093994140625 -100.0 1.5099999904632568  154.1639862060547 -100.0 1.5499999523162842
T Nodo053  154.2255096435547 -100.0 1.5099999904632568  154.188232421875 -100.0 1.5099999904632568  154.2255096435547 -100.0 1.5449999570846558
T Nodo053  154.0436248779297 -100.0 1.5099999904632568  154.00929260253906 -100.0 1.5499999523162842  154.0449981689453 -100.0 1.5499999523162842
T Nodo053  153.9735870361328 -100.0 1.5499999523162842  154.00929260253906 -100.0 1.5499999523162842  154.00634765625 -100.0 1.5099999904632568
T Nodo053  154.0449981689453 -100.0 1.5499999523162842  154.08628845214844 -100.0 1.5499999523162842  154.08091735839844 -100.0 1.5099999904632568
T Nodo053  154.08628845214844 -100.0 1.5499999523162842  154.12408447265625 -100.0 1.5499999523162842  154.11366271972656 -100.0 1.5099999904632568
T Nodo053  154.12408447265625 -100.0 1.5499999523162842  154.1639862060547 -100.0 1.5499999523162842  154.15093994140625 -100.0 1.5099999904632568
T Nodo053  154.44749450683594 -100.0 1.5499999523162842  154.48739624023438 -100.0 1.5499999523162842  154.4580841064453 -100.0 1.5099999904632568
T Nodo053  154.48739624023438 -100.0 1.5499999523162842  154.5223846435547 -100.0 1.5499999523162842  154.49636840820312 -100.0 1.5099999904632568
T Nodo053  154.5223846435547 -100.0 1.5499999523162842  154.55809020996094 -100.0 1.5499999523162842  154.5314178466797 -100.0 1.5099999904632568
T Nodo053  154.55809020996094 -100.0 1.5499999523162842  154.5937957763672 -100.0 1.5499999523162842  154.5659637451172 -100.0 1.5099999904632568
T Nodo053  154.5937957763672 -100.0 1.5499999523162842  154.63369750976562 -100.0 1.5499999523162842  154.60450744628906 -100.0 1.5099999904632568
T Nodo053  154.63369750976562 -100.0 1.5499999523162842  154.67359924316406 -100.0 1.5499999523162842  154.6387939453125 -100.0 1.5099999904632568
T Nodo053  154.67359924316406 -100.0 1.5499999523162842  154.67359924316406 -100.0 1.5099999904632568  154.6387939453125 -100.0 1.5099999904632568
T Nodo053  154.4580841064453 -100.0 1.5099999904632568  154.42327880859375 -100.0 1.5099999904632568  154.44749450683594 -100.0 1.5499999523162842
T Nodo053  154.49636840820312 -100.0 1.5099999904632568  154.4580841064453 -100.0 1.5099999904632568  154.48739624023438 -100.0 1.5499999523162842
T Nodo053  154.5314178466797 -100.0 1.5099999904632568  154.49636840820312 -100.0 1.5099999904632568  154.5223846435547 -100.0 1.5499999523162842
T Nodo053  154.5659637451172 -100.0 1.5099999904632568  154.5314178466797 -100.0 1.5099999904632568  154.55809020996094 -100.0 1.5499999523162842
T Nodo053  154.60450744628906 -100.0 1.5099999904632568  154.5659637451172 -100.0 1.5099999904632568  154.5937957763672 -100.0 1.5499999523162842
T Nodo053  154.6387939453125 -100.0 1.5099999904632568  154.60450744628906 -100.0 1.5099999904632568  154.63369750976562 -100.0 1.5499999523162842
T Nodo053  154.188232421875 -100.0 1.5099999904632568  154.1639862060547 -100.0 1.5499999523162842  154.19969177246094 -100.0 1.5499999523162842
T Nodo053  154.2353973388672 -100.0 1.5499999523162842  154.2703857421875 -100.0 1.5499999523162842  154.258544921875 -100.0 1.5449999570846558
T Nodo053  154.2703857421875 -100.0 1.5499999523162842  154.30538940429688 -100.0 1.5499999523162842  154.29116821289062 -100.0 1.5449999570846558
T Nodo053  154.30538940429688 -100.0 1.5499999523162842  154.34109497070312 -100.0 1.5499999523162842  154.3238067626953 -100.0 1.5449999570846558
T Nodo053  154.34109497070312 -100.0 1.5499999523162842  154.3767852783203 -100.0 1.5499999523162842  154.35684204101562 -100.0 1.5449999570846558
T Nodo053  154.3767852783203 -100.0 1.5499999523162842  154.4117889404297 -100.0 1.5499999523162842  154.3900604248047 -100.0 1.5449999570846558
T Nodo053  154.258544921875 -100.0 1.5449999570846558  154.2703857421875 -100.0 1.5499999523162842  154.29116821289062 -100.0 1.5449999570846558
T Nodo053  154.29116821289062 -100.0 1.5449999570846558  154.30538940429688 -100.0 1.5499999523162842  154.3238067626953 -100.0 1.5449999570846558
T Nodo053  154.2353973388672 -100.0 1.5499999523162842  154.258544921875 -100.0 1.5449999570846558  154.2255096435547 -100.0 1.5449999570846558
T Nodo053  154.34109497070312 -100.0 1.5499999523162842  154.35684204101562 -100.0 1.5449999570846558  154.3238067626953 -100.0 1.5449999570846558
T Nodo053  154.3767852783203 -100.0 1.5499999523162842  154.3900604248047 -100.0 1.5449999570846558  154.35684204101562 -100.0 1.5449999570846558
T Nodo053  154.42327880859375 -100.0 1.5449999570846558  154.3900604248047 -100.0 1.5449999570846558  154.4117889404297 -100.0 1.5499999523162842
T Nodo053  154.19969177246094 -100.0 1.5499999523162842  154.2353973388672 -100.0 1.5499999523162842  154.2255096435547 -100.0 1.5449999570846558
T Nodo053  154.4117889404297 -100.0 1.5499999523162842  154.44749450683594 -100.0 1.5499999523162842  154.42327880859375 -100.0 1.5449999570846558
T Nodo053  154.188232421875 -100.0 1.5099999904632568  154.19969177246094 -100.0 1.5499999523162842  154.2255096435547 -100.0 1.5449999570846558
T Nodo053  154.42327880859375 -100.0 1.5099999904632568  154.42327880859375 -100.0 1.5449999570846558  154.44749450683594 -100.0 1.5499999523162842
T Nodo053  153.7976531982422 -100.07239532470703 1.5499999523162842  153.7235870361328 -100.25 1.5499999523162842  153.91368103027344 -100.12671661376953 1.5499999523162842
T Nodo053  153.7976531982422 -100.07239532470703 1.5499999523162842  153.91368103027344 -100.12671661376953 1.5499999523162842  153.9735870361328 -100.0 1.5499999523162842
T Nodo053  154.32638549804688 -100.0 1.5499999523162842  153.9735870361328 -100.0 1.5499999523162842  154.1350860595703 -100.20269012451172 1.5499999523162842
T Nodo053  153.9735870361328 -100.0 1.5499999523162842  153.91368103027344 -100.12671661376953 1.5499999523162842  154.1350860595703 -100.20269012451172 1.5499999523162842
T Nodo053  154.85037231445312 -100.0732192993164 1.5499999523162842  154.67359924316406 -100.0 1.5499999523162842  154.67982482910156 -100.1884765625 1.5499999523162842
T Nodo053  154.85037231445312 -100.0732192993164 1.5499999523162842  154.67982482910156 -100.1884765625 1.5499999523162842  154.92359924316406 -100.25 1.5499999523162842
T Nodo053  154.85037231445312 -101.32677459716797 1.5499999523162842  154.92359924316406 -101.1500015258789 1.5499999523162842  154.72695922851562 -101.20613861083984 1.5499999523162842
T Nodo053  154.85037231445312 -101.32677459716797 1.5499999523162842  154.72695922851562 -101.20613861083984 1.5499999523162842  154.67359924316406 -101.4000015258789 1.5499999523162842
T Nodo053  153.9735870361328 -101.4000015258789 1.5499999523162842  154.27809143066406 -101.4000015258789 1.5499999523162842  154.1842803955078 -101.11066436767578 1.5499999523162842
T Nodo053  153.79653930664062 -101.32649993896484 1.5499999523162842  153.9735870361328 -101.4000015258789 1.5499999523162842  153.9185791015625 -101.15831756591797 1.5499999523162842
T Nodo053  153.7235870361328 -101.1500015258789 1.5499999523162842  153.79653930664062 -101.32649993896484 1.5499999523162842  153.9185791015625 -101.15831756591797 1.5499999523162842
T Nodo053  153.9735870361328 -101.4000015258789 1.5499999523162842  154.1842803955078 -101.11066436767578 1.5499999523162842  153.9185791015625 -101.15831756591797 1.5499999523162842
T Nodo053  154.67359924316406 -100.0 1.5499999523162842  154.32638549804688 -100.0 1.5499999523162842  154.44253540039062 -100.18026733398438 1.5499999523162842
T Nodo053  154.92359924316406 -100.63069915771484 1.5499999523162842  154.92359924316406 -100.25 1.5499999523162842  154.4267578125 -100.48519897460938 1.5499999523162842
T Nodo053  154.67359924316406 -100.0 1.5499999523162842  154.44253540039062 -100.18026733398438 1.5499999523162842  154.67982482910156 -100.1884765625 1.5499999523162842
T Nodo053  153.7235870361328 -100.25 1.5499999523162842  153.7235870361328 -100.68830108642578 1.5499999523162842  154.4267578125 -100.48519897460938 1.5499999523162842
T Nodo053  154.32638549804688 -100.0 1.5499999523162842  154.1350860595703 -100.20269012451172 1.5499999523162842  154.44253540039062 -100.18026733398438 1.5499999523162842
T Nodo053  154.92359924316406 -100.63069915771484 1.5499999523162842  154.4267578125 -100.48519897460938 1.5499999523162842  154.42654418945312 -100.84587097167969 1.5499999523162842
T Nodo053  154.72695922851562 -101.20613861083984 1.5499999523162842  154.92359924316406 -101.1500015258789 1.5499999523162842  154.6963653564453 -100.99697875976562 1.5499999523162842
T Nodo053  154.67359924316406 -101.4000015258789 1.5499999523162842  154.72695922851562 -101.20613861083984 1.5499999523162842  154.4970703125 -101.16488647460938 1.5499999523162842
T Nodo053  154.92359924316406 -101.1500015258789 1.5499999523162842  154.92359924316406 -100.63069915771484 1.5499999523162842  154.6963653564453 -100.99697875976562 1.5499999523162842
T Nodo053  154.1842803955078 -101.11066436767578 1.5499999523162842  154.27809143066406 -101.4000015258789 1.5499999523162842  154.4970703125 -101.16488647460938 1.5499999523162842
T Nodo053  154.4267578125 -100.48519897460938 1.5499999523162842  153.7235870361328 -100.68830108642578 1.5499999523162842  154.42654418945312 -100.84587097167969 1.5499999523162842
T Nodo053  154.27809143066406 -101.4000015258789 1.5499999523162842  154.67359924316406 -101.4000015258789 1.5499999523162842  154.4970703125 -101.16488647460938 1.5499999523162842
T Nodo053  154.4267578125 -100.48519897460938 1.5499999523162842  154.92359924316406 -100.25 1.5499999523162842  154.67982482910156 -100.1884765625 1.5499999523162842
T Nodo053  154.72695922851562 -101.20613861083984 1.5499999523162842  154.6963653564453 -100.99697875976562 1.5499999523162842  154.4970703125 -101.16488647460938 1.5499999523162842
T Nodo053  154.42654418945312 -100.84587097167969 1.5499999523162842  153.7235870361328 -100.68830108642578 1.5499999523162842  154.1842803955078 -101.11066436767578 1.5499999523162842
T Nodo053  153.7235870361328 -100.68830108642578 1.5499999523162842  153.7235870361328 -101.1500015258789 1.5499999523162842  153.9185791015625 -101.15831756591797 1.5499999523162842
T Nodo053  154.4970703125 -101.16488647460938 1.5499999523162842  154.6963653564453 -100.99697875976562 1.5499999523162842  154.42654418945312 -100.84587097167969 1.5499999523162842
T Nodo053  154.1842803955078 -101.11066436767578 1.5499999523162842  154.4970703125 -101.16488647460938 1.5499999523162842  154.42654418945312 -100.84587097167969 1.5499999523162842
T Nodo053  154.6963653564453 -100.99697875976562 1.5499999523162842  154.92359924316406 -100.63069915771484 1.5499999523162842  154.42654418945312 -100.84587097167969 1.5499999523162842
T Nodo053  154.67982482910156 -100.1884765625 1.5499999523162842  154.44253540039062 -100.18026733398438 1.5499999523162842  154.4267578125 -100.48519897460938 1.5499999523162842
T Nodo053  154.1842803955078 -101.11066436767578 1.5499999523162842  153.7235870361328 -100.68830108642578 1.5499999523162842  153.9185791015625 -101.15831756591797 1.5499999523162842
T Nodo053  153.7235870361328 -100.25 1.5499999523162842  154.4267578125 -100.48519897460938 1.5499999523162842  154.1350860595703 -100.20269012451172 1.5499999523162842
T Nodo053  154.4267578125 -100.48519897460938 1.5499999523162842  154.44253540039062 -100.18026733398438 1.5499999523162842  154.1350860595703 -100.20269012451172 1.5499999523162842
T Nodo053  153.7235870361328 -100.25 1.5499999523162842  154.1350860595703 -100.20269012451172 1.5499999523162842  153.91368103027344 -100.12671661376953 1.5499999523162842
T Nodo053  154.63095092773438 -101.4000015258789 1.5099999904632568  154.67359924316406 -101.4000015258789 1.5099999904632568  154.6378936767578 -101.4000015258789 1.5499999523162842
T Nodo053  154.5883026123047 -101.4000015258789 1.5099999904632568  154.63095092773438 -101.4000015258789 1.5099999904632568  154.60218811035156 -101.4000015258789 1.5499999523162842
T Nodo053  154.54566955566406 -101.4000015258789 1.5099999904632568  154.5883026123047 -101.4000015258789 1.5099999904632568  154.56649780273438 -101.4000015258789 1.5499999523162842
T Nodo053  154.50302124023438 -101.4000015258789 1.5099999904632568  154.54566955566406 -101.4000015258789 1.5099999904632568  154.53079223632812 -101.4000015258789 1.5499999523162842
T Nodo053  154.46212768554688 -101.4000015258789 1.5099999904632568  154.50302124023438 -101.4000015258789 1.5099999904632568  154.4908905029297 -101.4000015258789 1.5499999523162842
T Nodo053  154.42274475097656 -101.4000015258789 1.5099999904632568  154.46212768554688 -101.4000015258789 1.5099999904632568  154.42274475097656 -101.4000015258789 1.5449999570846558
T Nodo053  154.67359924316406 -101.4000015258789 1.5099999904632568  154.67359924316406 -101.4000015258789 1.5499999523162842  154.6378936767578 -101.4000015258789 1.5499999523162842
T Nodo053  154.6378936767578 -101.4000015258789 1.5499999523162842  154.60218811035156 -101.4000015258789 1.5499999523162842  154.63095092773438 -101.4000015258789 1.5099999904632568
T Nodo053  154.60218811035156 -101.4000015258789 1.5499999523162842  154.56649780273438 -101.4000015258789 1.5499999523162842  154.5883026123047 -101.4000015258789 1.5099999904632568
T Nodo053  154.56649780273438 -101.4000015258789 1.5499999523162842  154.53079223632812 -101.4000015258789 1.5499999523162842  154.54566955566406 -101.4000015258789 1.5099999904632568
T Nodo053  154.53079223632812 -101.4000015258789 1.5499999523162842  154.4908905029297 -101.4000015258789 1.5499999523162842  154.50302124023438 -101.4000015258789 1.5099999904632568
T Nodo053  154.19898986816406 -101.4000015258789 1.5499999523162842  154.15908813476562 -101.4000015258789 1.5499999523162842  154.18746948242188 -101.4000015258789 1.5099999904632568
T Nodo053  154.15908813476562 -101.4000015258789 1.5499999523162842  154.1191864013672 -101.4000015258789 1.5499999523162842  154.14968872070312 -101.4000015258789 1.5099999904632568
T Nodo053  154.1191864013672 -101.4000015258789 1.5499999523162842  154.07998657226562 -101.4000015258789 1.5499999523162842  154.1118927001953 -101.4000015258789 1.5099999904632568
T Nodo053  154.07998657226562 -101.4000015258789 1.5499999523162842  154.04429626464844 -101.4000015258789 1.5499999523162842  154.07838439941406 -101.4000015258789 1.5099999904632568
T Nodo053  154.04429626464844 -101.4000015258789 1.5499999523162842  154.0085906982422 -101.4000015258789 1.5499999523162842  154.04489135742188 -101.4000015258789 1.5099999904632568
T Nodo053  154.0085906982422 -101.4000015258789 1.5499999523162842  153.9735870361328 -101.4000015258789 1.5499999523162842  154.00709533691406 -101.4000015258789 1.5099999904632568
T Nodo053  153.9735870361328 -101.4000015258789 1.5499999523162842  153.9735870361328 -101.4000015258789 1.5099999904632568  154.00709533691406 -101.4000015258789 1.5099999904632568
T Nodo053  154.18746948242188 -101.4000015258789 1.5099999904632568  154.2255096435547 -101.4000015258789 1.5099999904632568  154.19898986816406 -101.4000015258789 1.5499999523162842
T Nodo053  154.14968872070312 -101.4000015258789 1.5099999904632568  154.18746948242188 -101.4000015258789 1.5099999904632568  154.15908813476562 -101.4000015258789 1.5499999523162842
T Nodo053  154.1118927001953 -101.4000015258789 1.5099999904632568  154.14968872070312 -101.4000015258789 1.5099999904632568  154.1191864013672 -101.4000015258789 1.5499999523162842
T Nodo053  154.07838439941406 -101.4000015258789 1.5099999904632568  154.1118927001953 -101.4000015258789 1.5099999904632568  154.07998657226562 -101.4000015258789 1.5499999523162842
T Nodo053  154.04489135742188 -101.4000015258789 1.5099999904632568  154.07838439941406 -101.4000015258789 1.5099999904632568  154.04429626464844 -101.4000015258789 1.5499999523162842
T Nodo053  154.00709533691406 -101.4000015258789 1.5099999904632568  154.04489135742188 -101.4000015258789 1.5099999904632568  154.0085906982422 -101.4000015258789 1.5499999523162842
T Nodo053  154.46212768554688 -101.4000015258789 1.5099999904632568  154.4908905029297 -101.4000015258789 1.5499999523162842  154.45098876953125 -101.4000015258789 1.5499999523162842
T Nodo053  154.34458923339844 -101.4000015258789 1.5499999523162842  154.30958557128906 -101.4000015258789 1.5499999523162842  154.32432556152344 -101.4000015258789 1.5449999570846558
T Nodo053  154.30958557128906 -101.4000015258789 1.5499999523162842  154.27459716796875 -101.4000015258789 1.5499999523162842  154.2915802001953 -101.4000015258789 1.5449999570846558
T Nodo053  154.27459716796875 -101.4000015258789 1.5499999523162842  154.2388916015625 -101.4000015258789 1.5499999523162842  154.25865173339844 -101.4000015258789 1.5449999570846558
T Nodo053  154.32432556152344 -101.4000015258789 1.5449999570846558  154.30958557128906 -101.4000015258789 1.5499999523162842  154.2915802001953 -101.4000015258789 1.5449999570846558
T Nodo053  154.2915802001953 -101.4000015258789 1.5449999570846558  154.27459716796875 -101.4000015258789 1.5499999523162842  154.25865173339844 -101.4000015258789 1.5449999570846558
T Nodo053  154.34458923339844 -101.4000015258789 1.5499999523162842  154.32432556152344 -101.4000015258789 1.5449999570846558  154.35707092285156 -101.4000015258789 1.5449999570846558
T Nodo053  154.25865173339844 -101.4000015258789 1.5449999570846558  154.2388916015625 -101.4000015258789 1.5499999523162842  154.2255096435547 -101.4000015258789 1.5449999570846558
T Nodo053  154.35707092285156 -101.4000015258789 1.5449999570846558  154.3902130126953 -101.4000015258789 1.5449999570846558  154.38099670410156 -101.4000015258789 1.5499999523162842
T Nodo053  154.3902130126953 -101.4000015258789 1.5449999570846558  154.42274475097656 -101.4000015258789 1.5449999570846558  154.41598510742188 -101.4000015258789 1.5499999523162842
T Nodo053  154.41598510742188 -101.4000015258789 1.5499999523162842  154.42274475097656 -101.4000015258789 1.5449999570846558  154.45098876953125 -101.4000015258789 1.5499999523162842
T Nodo053  154.41598510742188 -101.4000015258789 1.5499999523162842  154.38099670410156 -101.4000015258789 1.5499999523162842  154.3902130126953 -101.4000015258789 1.5449999570846558
T Nodo053  154.38099670410156 -101.4000015258789 1.5499999523162842  154.34458923339844 -101.4000015258789 1.5499999523162842  154.35707092285156 -101.4000015258789 1.5449999570846558
T Nodo053  154.2388916015625 -101.4000015258789 1.5499999523162842  154.19898986816406 -101.4000015258789 1.5499999523162842  154.2255096435547 -101.4000015258789 1.5449999570846558
T Nodo053  154.46212768554688 -101.4000015258789 1.5099999904632568  154.45098876953125 -101.4000015258789 1.5499999523162842  154.42274475097656 -101.4000015258789 1.5449999570846558
T Nodo053  154.2255096435547 -101.4000015258789 1.5099999904632568  154.2255096435547 -101.4000015258789 1.5449999570846558  154.19898986816406 -101.4000015258789 1.5499999523162842
T Nodo053  154.00634765625 -103.5 1.5099999904632568  153.9735870361328 -103.5 1.5099999904632568  153.9735870361328 -103.5 1.5499999523162842
T Nodo053  154.0436248779297 -103.5 1.5099999904632568  154.00634765625 -103.5 1.5099999904632568  154.00929260253906 -103.5 1.5499999523162842
T Nodo053  154.08091735839844 -103.5 1.5099999904632568  154.0436248779297 -103.5 1.5099999904632568  154.0449981689453 -103.5 1.5499999523162842
T Nodo053  154.11366271972656 -103.5 1.5099999904632568  154.08091735839844 -103.5 1.5099999904632568  154.08628845214844 -103.5 1.5499999523162842
T Nodo053  154.15093994140625 -103.5 1.5099999904632568  154.11366271972656 -103.5 1.5099999904632568  154.12408447265625 -103.5 1.5499999523162842
T Nodo053  154.188232421875 -103.5 1.5099999904632568  154.15093994140625 -103.5 1.5099999904632568  154.1639862060547 -103.5 1.5499999523162842
T Nodo053  154.2255096435547 -103.5 1.5099999904632568  154.188232421875 -103.5 1.5099999904632568  154.2255096435547 -103.5 1.5449999570846558
T Nodo053  154.0436248779297 -103.5 1.5099999904632568  154.00929260253906 -103.5 1.5499999523162842  154.0449981689453 -103.5 1.5499999523162842
T Nodo053  153.9735870361328 -103.5 1.5499999523162842  154.00929260253906 -103.5 1.5499999523162842  154.00634765625 -103.5 1.5099999904632568
T Nodo053  154.0449981689453 -103.5 1.5499999523162842  154.08628845214844 -103.5 1.5499999523162842  154.08091735839844 -103.5 1.5099999904632568
T Nodo053  154.08628845214844 -103.5 1.5499999523162842  154.12408447265625 -103.5 1.5499999523162842  154.11366271972656 -103.5 1.5099999904632568
T Nodo053  154.12408447265625 -103.5 1.5499999523162842  154.1639862060547 -103.5 1.5499999523162842  154.15093994140625 -103.5 1.5099999904632568
T Nodo053  154.44749450683594 -103.5 1.5499999523162842  154.48739624023438 -103.5 1.5499999523162842  154.4564208984375 -103.5 1.5099999904632568
T Nodo053  154.48739624023438 -103.5 1.5499999523162842  154.52308654785156 -103.5 1.5499999523162842  154.49542236328125 -103.5 1.5099999904632568
T Nodo053  154.52308654785156 -103.5 1.5499999523162842  154.55809020996094 -103.5 1.5499999523162842  154.53065490722656 -103.5 1.5099999904632568
T Nodo053  154.55809020996094 -103.5 1.5499999523162842  154.5937957763672 -103.5 1.5499999523162842  154.5651397705078 -103.5 1.5099999904632568
T Nodo053  154.5937957763672 -103.5 1.5499999523162842  154.63369750976562 -103.5 1.5499999523162842  154.6038818359375 -103.5 1.5099999904632568
T Nodo053  154.63369750976562 -103.5 1.5499999523162842  154.67359924316406 -103.5 1.5499999523162842  154.63861083984375 -103.5 1.5099999904632568
T Nodo053  154.67359924316406 -103.5 1.5499999523162842  154.67359924316406 -103.5 1.5099999904632568  154.63861083984375 -103.5 1.5099999904632568
T Nodo053  154.4564208984375 -103.5 1.5099999904632568  154.4219512939453 -103.5 1.5099999904632568  154.44749450683594 -103.5 1.5499999523162842
T Nodo053  154.49542236328125 -103.5 1.5099999904632568  154.4564208984375 -103.5 1.5099999904632568  154.48739624023438 -103.5 1.5499999523162842
T Nodo053  154.53065490722656 -103.5 1.5099999904632568  154.49542236328125 -103.5 1.5099999904632568  154.52308654785156 -103.5 1.5499999523162842
T Nodo053  154.5651397705078 -103.5 1.5099999904632568  154.53065490722656 -103.5 1.5099999904632568  154.55809020996094 -103.5 1.5499999523162842
T Nodo053  154.6038818359375 -103.5 1.5099999904632568  154.5651397705078 -103.5 1.5099999904632568  154.5937957763672 -103.5 1.5499999523162842
T Nodo053  154.63861083984375 -103.5 1.5099999904632568  154.6038818359375 -103.5 1.5099999904632568  154.63369750976562 -103.5 1.5499999523162842
T Nodo053  154.188232421875 -103.5 1.5099999904632568  154.1639862060547 -103.5 1.5499999523162842  154.19969177246094 -103.5 1.5499999523162842
T Nodo053  154.2353973388672 -103.5 1.5499999523162842  154.2703857421875 -103.5 1.5499999523162842  154.25811767578125 -103.5 1.5449999570846558
T Nodo053  154.2703857421875 -103.5 1.5499999523162842  154.30538940429688 -103.5 1.5499999523162842  154.29052734375 -103.5 1.5449999570846558
T Nodo053  154.30538940429688 -103.5 1.5499999523162842  154.34109497070312 -103.5 1.5499999523162842  154.32313537597656 -103.5 1.5449999570846558
T Nodo053  154.34109497070312 -103.5 1.5499999523162842  154.3767852783203 -103.5 1.5499999523162842  154.35614013671875 -103.5 1.5449999570846558
T Nodo053  154.25811767578125 -103.5 1.5449999570846558  154.2703857421875 -103.5 1.5499999523162842  154.29052734375 -103.5 1.5449999570846558
T Nodo053  154.29052734375 -103.5 1.5449999570846558  154.30538940429688 -103.5 1.5499999523162842  154.32313537597656 -103.5 1.5449999570846558
T Nodo053  154.2353973388672 -103.5 1.5499999523162842  154.25811767578125 -103.5 1.5449999570846558  154.2255096435547 -103.5 1.5449999570846558
T Nodo053  154.34109497070312 -103.5 1.5499999523162842  154.35614013671875 -103.5 1.5449999570846558  154.32313537597656 -103.5 1.5449999570846558
T Nodo053  154.35614013671875 -103.5 1.5449999570846558  154.3767852783203 -103.5 1.5499999523162842  154.38894653320312 -103.5 1.5449999570846558
T Nodo053  154.4219512939453 -103.5 1.5449999570846558  154.38894653320312 -103.5 1.5449999570846558  154.41249084472656 -103.5 1.5499999523162842
T Nodo053  154.19969177246094 -103.5 1.5499999523162842  154.2353973388672 -103.5 1.5499999523162842  154.2255096435547 -103.5 1.5449999570846558
T Nodo053  154.3767852783203 -103.5 1.5499999523162842  154.41249084472656 -103.5 1.5499999523162842  154.38894653320312 -103.5 1.5449999570846558
T Nodo053  154.41249084472656 -103.5 1.5499999523162842  154.44749450683594 -103.5 1.5499999523162842  154.4219512939453 -103.5 1.5449999570846558
T Nodo053  154.188232421875 -103.5 1.5099999904632568  154.19969177246094 -103.5 1.5499999523162842  154.2255096435547 -103.5 1.5449999570846558
T Nodo053  154.4219512939453 -103.5 1.5449999570846558  154.44749450683594 -103.5 1.5499999523162842  154.4219512939453 -103.5 1.5099999904632568
T Nodo053  153.7976531982422 -103.57239532470703 1.5499999523162842  153.7235870361328 -103.75 1.5499999523162842  153.91368103027344 -103.62671661376953 1.5499999523162842
T Nodo053  153.7976531982422 -103.57239532470703 1.5499999523162842  153.91368103027344 -103.62671661376953 1.5499999523162842  153.9735870361328 -103.5 1.5499999523162842
T Nodo053  154.32638549804688 -103.5 1.5499999523162842  153.9735870361328 -103.5 1.5499999523162842  154.1350860595703 -103.70269012451172 1.5499999523162842
T Nodo053  153.9735870361328 -103.5 1.5499999523162842  153.91368103027344 -103.62671661376953 1.5499999523162842  154.1350860595703 -103.70269012451172 1.5499999523162842
T Nodo053  154.85037231445312 -103.5732192993164 1.5499999523162842  154.67359924316406 -103.5 1.5499999523162842  154.67982482910156 -103.6884765625 1.5499999523162842
T Nodo053  154.85037231445312 -103.5732192993164 1.5499999523162842  154.67982482910156 -103.6884765625 1.5499999523162842  154.92359924316406 -103.75 1.5499999523162842
T Nodo053  154.85037231445312 -104.82677459716797 1.5499999523162842  154.92359924316406 -104.6500015258789 1.5499999523162842  154.72695922851562 -104.70613861083984 1.5499999523162842
T Nodo053  154.85037231445312 -104.82677459716797 1.5499999523162842  154.72695922851562 -104.70613861083984 1.5499999523162842  154.67359924316406 -104.9000015258789 1.5499999523162842
T Nodo053  153.9735870361328 -104.9000015258789 1.5499999523162842  154.27809143066406 -104.9000015258789 1.5499999523162842  154.1842803955078 -104.61066436767578 1.5499999523162842
T Nodo053  153.79653930664062 -104.82649993896484 1.5499999523162842  153.9735870361328 -104.9000015258789 1.5499999523162842  153.9185791015625 -104.65831756591797 1.5499999523162842
T Nodo053  153.7235870361328 -104.6500015258789 1.5499999523162842  153.79653930664062 -104.82649993896484 1.5499999523162842  153.9185791015625 -104.65831756591797 1.5499999523162842
T Nodo053  153.9735870361328 -104.9000015258789 1.5499999523162842  154.1842803955078 -104.61066436767578 1.5499999523162842  153.9185791015625 -104.65831756591797 1.5499999523162842
T Nodo053  154.67359924316406 -103.5 1.5499999523162842  154.32638549804688 -103.5 1.5499999523162842  154.44253540039062 -103.68026733398438 1.5499999523162842
T Nodo053  154.92359924316406 -104.13069915771484 1.5499999523162842  154.92359924316406 -103.75 1.5499999523162842  154.4267578125 -103.98519897460938 1.5499999523162842
T Nodo053  154.67359924316406 -103.5 1.5499999523162842  154.44253540039062 -103.68026733398438 1.5499999523162842  154.67982482910156 -103.6884765625 1.5499999523162842
T Nodo053  153.7235870361328 -103.75 1.5499999523162842  153.7235870361328 -104.18830108642578 1.5499999523162842  154.4267578125 -103.98519897460938 1.5499999523162842
T Nodo053  154.32638549804688 -103.5 1.5499999523162842  154.1350860595703 -103.70269012451172 1.5499999523162842  154.44253540039062 -103.68026733398438 1.5499999523162842
T Nodo053  154.92359924316406 -104.13069915771484 1.5499999523162842  154.4267578125 -103.98519897460938 1.5499999523162842  154.42654418945312 -104.34587097167969 1.5499999523162842
T Nodo053  154.72695922851562 -104.70613861083984 1.5499999523162842  154.92359924316406 -104.6500015258789 1.5499999523162842  154.6963653564453 -104.49697875976562 1.5499999523162842
T Nodo053  154.67359924316406 -104.9000015258789 1.5499999523162842  154.72695922851562 -104.70613861083984 1.5499999523162842  154.4970703125 -104.66488647460938 1.5499999523162842
T Nodo053  154.92359924316406 -104.6500015258789 1.5499999523162842  154.92359924316406 -104.13069915771484 1.5499999523162842  154.6963653564453 -104.49697875976562 1.5499999523162842
T Nodo053  154.1842803955078 -104.61066436767578 1.5499999523162842  154.27809143066406 -104.9000015258789 1.5499999523162842  154.4970703125 -104.66488647460938 1.5499999523162842
T Nodo053  154.4267578125 -103.98519897460938 1.5499999523162842  153.7235870361328 -104.18830108642578 1.5499999523162842  154.42654418945312 -104.34587097167969 1.5499999523162842
T Nodo053  154.27809143066406 -104.9000015258789 1.5499999523162842  154.67359924316406 -104.9000015258789 1.5499999523162842  154.4970703125 -104.66488647460938 1.5499999523162842
T Nodo053  154.4267578125 -103.98519897460938 1.5499999523162842  154.92359924316406 -103.75 1.5499999523162842  154.67982482910156 -103.6884765625 1.5499999523162842
T Nodo053  154.72695922851562 -104.70613861083984 1.5499999523162842  154.6963653564453 -104.49697875976562 1.5499999523162842  154.4970703125 -104.66488647460938 1.5499999523162842
T Nodo053  154.42654418945312 -104.34587097167969 1.5499999523162842  153.7235870361328 -104.18830108642578 1.5499999523162842  154.1842803955078 -104.61066436767578 1.5499999523162842
T Nodo053  153.7235870361328 -104.18830108642578 1.5499999523162842  153.7235870361328 -104.6500015258789 1.5499999523162842  153.9185791015625 -104.65831756591797 1.5499999523162842
T Nodo053  154.4970703125 -104.66488647460938 1.5499999523162842  154.6963653564453 -104.49697875976562 1.5499999523162842  154.42654418945312 -104.34587097167969 1.5499999523162842
T Nodo053  154.1842803955078 -104.61066436767578 1.5499999523162842  154.4970703125 -104.66488647460938 1.5499999523162842  154.42654418945312 -104.34587097167969 1.5499999523162842
T Nodo053  154.6963653564453 -104.49697875976562 1.5499999523162842  154.92359924316406 -104.13069915771484 1.5499999523162842  154.42654418945312 -104.34587097167969 1.5499999523162842
T Nodo053  154.67982482910156 -103.6884765625 1.5499999523162842  154.44253540039062 -103.68026733398438 1.5499999523162842  154.4267578125 -103.98519897460938 1.5499999523162842
T Nodo053  154.1842803955078 -104.61066436767578 1.5499999523162842  153.7235870361328 -104.18830108642578 1.5499999523162842  153.9185791015625 -104.65831756591797 1.5499999523162842
T Nodo053  153.7235870361328 -103.75 1.5499999523162842  154.4267578125 -103.98519897460938 1.5499999523162842  154.1350860595703 -103.70269012451172 1.5499999523162842
T Nodo053  154.4267578125 -103.98519897460938 1.5499999523162842  154.44253540039062 -103.68026733398438 1.5499999523162842  154.1350860595703 -103.70269012451172 1.5499999523162842
T Nodo053  153.7235870361328 -103.75 1.5499999523162842  154.1350860595703 -103.70269012451172 1.5499999523162842  153.91368103027344 -103.62671661376953 1.5499999523162842

