0 conductor definition file for the following objects
* - A_NodoNegativoHPF
* created using FreeCAD's ElectroMagnetic workbench
* see http://www.freecad.org and http://www.fastfieldsolvers.com

Q Nodo049  160.699816 -86.01638 1.51  160.699816 -86.01638 1.55  160.949816 -85.76638 1.55  160.949816 -85.76637999999716 1.51
Q Nodo049  160.949816 -85.76638 1.51  160.949816 -85.76638 1.55  161.649816 -85.76638 1.55  161.649816 -85.76638 1.51
Q Nodo049  161.649816 -85.76638 1.51  161.649816 -85.76638 1.55  161.899816 -86.01638 1.55  161.89981599999285 -86.01638 1.51
Q Nodo049  161.899816 -86.01638 1.51  161.899816 -86.01638 1.55  161.899816 -86.91638 1.55  161.899816 -86.91638 1.51
Q Nodo049  161.899816 -86.91638 1.51  161.899816 -86.91638 1.55  161.649816 -87.16638 1.55  161.649816 -87.16637999999284 1.51
Q Nodo049  160.949816 -87.16638 1.51  160.949816 -87.16638 1.55  160.699816 -86.91638 1.55  160.69981599999716 -86.91638 1.51
Q Nodo049  160.699816 -86.91638 1.51  160.699816 -86.91638 1.55  160.699816 -86.01638 1.55  160.699816 -86.01638 1.51
Q Nodo049  161.397895 -87.8 1.545  161.397895 -87.16638 1.545  161.397895 -87.16638 1.51  161.397895 -87.8 1.51
Q Nodo049  161.20102666508086 -87.16638 1.545  161.20040112403 -87.8 1.545  161.20040112403 -87.8 1.51  161.20102666508 -87.16638 1.51
Q Nodo049  161.20040112403 -87.8 1.545  161.20102666508 -87.16638 1.545  161.397895 -87.16638 1.545  161.397895 -87.8 1.545
Q Nodo049  161.611092 -87.8 1.51  161.611092 -87.8 1.55  161.861092 -88.05 1.55  161.86109199999285 -88.05 1.51
Q Nodo049  160.661092 -88.05 1.51  160.661092 -88.05 1.55  160.911092 -87.8 1.55  160.911092 -87.79999999999715 1.51
Q Nodo049  161.861092 -88.05 1.51  161.861092 -88.05 1.55  161.861092 -88.95 1.55  161.861092 -88.95 1.51
Q Nodo049  161.861092 -88.95 1.51  161.861092 -88.95 1.55  161.611092 -89.2 1.55  161.611092 -89.19999999999284 1.51
Q Nodo049  161.38369 -89.824386 1.545  161.38483042064 -89.2 1.545  161.38483042064 -89.2 1.51  161.38369 -89.824386 1.51
Q Nodo049  161.38369 -89.824386 1.51  161.38369 -89.824386 1.545  161.36502 -89.869451 1.545  161.36502 -89.869451 1.51
Q Nodo049  161.36502 -89.869451 1.51  161.36502 -89.869451 1.545  160.426092 -90.811776 1.545  160.42609199999993 -90.8117759999999 1.51
Q Nodo049  160.42535980277822 -91.25000000000001 1.545  160.426092 -90.811776 1.545  160.426092 -90.811776 1.51  160.42535980277 -91.25 1.51
Q Nodo049  160.178494 -90.735614 1.545  160.178494 -91.25 1.545  160.178494 -91.25 1.51  160.178494 -90.735614 1.51
Q Nodo049  160.178494 -90.735614 1.51  160.178494 -90.735614 1.545  160.197163 -90.690548 1.545  160.19716300000002 -90.69054800000002 1.51
Q Nodo049  160.197163 -90.690548 1.51  160.197163 -90.690548 1.545  161.136092 -89.748224 1.545  161.13609200000002 -89.74822400000001 1.51
Q Nodo049  161.1371267506683 -89.20000000000002 1.545  161.136092 -89.748224 1.545  161.136092 -89.748224 1.51  161.13712675066 -89.2 1.51
Q Nodo049  160.911092 -89.2 1.51  160.911092 -89.2 1.55  160.661092 -88.95 1.55  160.66109199999715 -88.95 1.51
Q Nodo049  160.661092 -88.95 1.51  160.661092 -88.95 1.55  160.661092 -88.05 1.55  160.661092 -88.05 1.51
Q Nodo049  160.451092 -91.25 1.51  160.451092 -91.25 1.55  160.601092 -91.4 1.55  160.601091999999 -91.4 1.51
Q Nodo049  160.001092 -91.4 1.51  160.001092 -91.4 1.55  160.151092 -91.25 1.55  160.151092 -91.24999999999102 1.51
Q Nodo049  160.601092 -91.4 1.51  160.601092 -91.4 1.55  160.601092 -93.05 1.55  160.601092 -93.05 1.51
Q Nodo049  160.601092 -93.05 1.51  160.601092 -93.05 1.55  160.451092 -93.2 1.55  160.451092 -93.19999999999898 1.51
Q Nodo049  160.451092 -93.2 1.51  160.451092 -93.2 1.55  160.151092 -93.2 1.55  160.151092 -93.2 1.51
Q Nodo049  160.151092 -93.2 1.51  160.151092 -93.2 1.55  160.001092 -93.05 1.55  160.001091999991 -93.05 1.51
Q Nodo049  160.001092 -93.05 1.51  160.001092 -93.05 1.55  160.001092 -91.4 1.55  160.001092 -91.4 1.51
T Nodo049  160.69981384277344 -86.0163803100586 1.5099999904632568  160.7733154296875 -85.83932495117188 1.5099999904632568  160.89712524414062 -85.95975494384766 1.5099999904632568
T Nodo049  160.7733154296875 -85.83932495117188 1.5099999904632568  160.94981384277344 -85.7663803100586 1.5099999904632568  160.89712524414062 -85.95975494384766 1.5099999904632568
T Nodo049  160.69981384277344 -86.9163818359375 1.5099999904632568  160.69981384277344 -86.64457702636719 1.5099999904632568  160.95266723632812 -86.77581024169922 1.5099999904632568
T Nodo049  160.69981384277344 -86.64457702636719 1.5099999904632568  160.69981384277344 -86.286376953125 1.5099999904632568  160.96292114257812 -86.48160552978516 1.5099999904632568
T Nodo049  160.69981384277344 -86.64457702636719 1.5099999904632568  160.96292114257812 -86.48160552978516 1.5099999904632568  160.95266723632812 -86.77581024169922 1.5099999904632568
T Nodo049  160.69981384277344 -86.286376953125 1.5099999904632568  160.69981384277344 -86.0163803100586 1.5099999904632568  160.93255615234375 -86.17517852783203 1.5099999904632568
T Nodo049  160.96292114257812 -86.48160552978516 1.5099999904632568  160.69981384277344 -86.286376953125 1.5099999904632568  160.93255615234375 -86.17517852783203 1.5099999904632568
T Nodo049  160.69981384277344 -86.0163803100586 1.5099999904632568  160.89712524414062 -85.95975494384766 1.5099999904632568  160.93255615234375 -86.17517852783203 1.5099999904632568
T Nodo049  160.77276611328125 -87.09288024902344 1.5099999904632568  160.69981384277344 -86.9163818359375 1.5099999904632568  160.97909545898438 -87.0096206665039 1.5099999904632568
T Nodo049  160.94981384277344 -87.1663818359375 1.5099999904632568  160.77276611328125 -87.09288024902344 1.5099999904632568  160.97909545898438 -87.0096206665039 1.5099999904632568
T Nodo049  160.69981384277344 -86.9163818359375 1.5099999904632568  160.95266723632812 -86.77581024169922 1.5099999904632568  160.97909545898438 -87.0096206665039 1.5099999904632568
T Nodo049  161.20101928710938 -87.1663818359375 1.5099999904632568  161.12063598632812 -87.1663818359375 1.5099999904632568  161.1651611328125 -87.05532836914062 1.5099999904632568
T Nodo049  161.12063598632812 -87.1663818359375 1.5099999904632568  160.94981384277344 -87.1663818359375 1.5099999904632568  160.97909545898438 -87.0096206665039 1.5099999904632568
T Nodo049  161.2003936767578 -87.80000305175781 1.5099999904632568  161.20050048828125 -87.69418334960938 1.5099999904632568  161.30194091796875 -87.74938201904297 1.5099999904632568
T Nodo049  161.20050048828125 -87.69418334960938 1.5099999904632568  161.2006072998047 -87.58837127685547 1.5099999904632568  161.2997589111328 -87.6419906616211 1.5099999904632568
T Nodo049  161.20050048828125 -87.69418334960938 1.5099999904632568  161.2997589111328 -87.6419906616211 1.5099999904632568  161.30194091796875 -87.74938201904297 1.5099999904632568
T Nodo049  161.2006072998047 -87.58837127685547 1.5099999904632568  161.20071411132812 -87.48255920410156 1.5099999904632568  161.2993621826172 -87.53590393066406 1.5099999904632568
T Nodo049  161.2006072998047 -87.58837127685547 1.5099999904632568  161.2993621826172 -87.53590393066406 1.5099999904632568  161.2997589111328 -87.6419906616211 1.5099999904632568
T Nodo049  161.20071411132812 -87.48255920410156 1.5099999904632568  161.20082092285156 -87.37737274169922 1.5099999904632568  161.2992401123047 -87.43020629882812 1.5099999904632568
T Nodo049  161.20071411132812 -87.48255920410156 1.5099999904632568  161.2992401123047 -87.43020629882812 1.5099999904632568  161.2993621826172 -87.53590393066406 1.5099999904632568
T Nodo049  161.20082092285156 -87.37737274169922 1.5099999904632568  161.200927734375 -87.27156066894531 1.5099999904632568  161.298828125 -87.32424926757812 1.5099999904632568
T Nodo049  161.20082092285156 -87.37737274169922 1.5099999904632568  161.298828125 -87.32424926757812 1.5099999904632568  161.2992401123047 -87.43020629882812 1.5099999904632568
T Nodo049  161.200927734375 -87.27156066894531 1.5099999904632568  161.20101928710938 -87.1663818359375 1.5099999904632568  161.2965087890625 -87.2165298461914 1.5099999904632568
T Nodo049  161.200927734375 -87.27156066894531 1.5099999904632568  161.2965087890625 -87.2165298461914 1.5099999904632568  161.298828125 -87.32424926757812 1.5099999904632568
T Nodo049  160.9110870361328 -87.80000305175781 1.5099999904632568  161.1055145263672 -87.80000305175781 1.5099999904632568  161.08717346191406 -87.98905181884766 1.5099999904632568
T Nodo049  160.73458862304688 -87.8729476928711 1.5099999904632568  160.9110870361328 -87.80000305175781 1.5099999904632568  160.88255310058594 -87.99525451660156 1.5099999904632568
T Nodo049  160.6610870361328 -88.05000305175781 1.5099999904632568  160.73458862304688 -87.8729476928711 1.5099999904632568  160.88255310058594 -87.99525451660156 1.5099999904632568
T Nodo049  160.9110870361328 -87.80000305175781 1.5099999904632568  161.08717346191406 -87.98905181884766 1.5099999904632568  160.88255310058594 -87.99525451660156 1.5099999904632568
T Nodo049  160.6610870361328 -88.94999694824219 1.5099999904632568  160.6610870361328 -88.54049682617188 1.5099999904632568  161.00645446777344 -88.74618530273438 1.5099999904632568
T Nodo049  160.73403930664062 -89.12649536132812 1.5099999904632568  160.6610870361328 -88.94999694824219 1.5099999904632568  160.9425506591797 -89.01985168457031 1.5099999904632568
T Nodo049  160.9110870361328 -89.19999694824219 1.5099999904632568  160.73403930664062 -89.12649536132812 1.5099999904632568  160.9425506591797 -89.01985168457031 1.5099999904632568
T Nodo049  160.6610870361328 -88.94999694824219 1.5099999904632568  161.00645446777344 -88.74618530273438 1.5099999904632568  160.9425506591797 -89.01985168457031 1.5099999904632568
T Nodo049  161.1371307373047 -89.19999694824219 1.5099999904632568  160.9110870361328 -89.19999694824219 1.5099999904632568  160.9425506591797 -89.01985168457031 1.5099999904632568
T Nodo049  161.13609313964844 -89.74822235107422 1.5099999904632568  161.1363525390625 -89.6106185913086 1.5099999904632568  161.27662658691406 -89.68344116210938 1.5099999904632568
T Nodo049  161.1363525390625 -89.6106185913086 1.5099999904632568  161.13661193847656 -89.47356414794922 1.5099999904632568  161.26315307617188 -89.53123474121094 1.5099999904632568
T Nodo049  161.13661193847656 -89.47356414794922 1.5099999904632568  161.13687133789062 -89.33650970458984 1.5099999904632568  161.26193237304688 -89.39692687988281 1.5099999904632568
T Nodo049  161.13687133789062 -89.33650970458984 1.5099999904632568  161.1371307373047 -89.19999694824219 1.5099999904632568  161.26483154296875 -89.26542663574219 1.5099999904632568
T Nodo049  161.13687133789062 -89.33650970458984 1.5099999904632568  161.26483154296875 -89.26542663574219 1.5099999904632568  161.26193237304688 -89.39692687988281 1.5099999904632568
T Nodo049  160.19715881347656 -90.6905517578125 1.5099999904632568  160.30419921875 -90.58312225341797 1.5099999904632568  160.42608642578125 -90.81177520751953 1.5099999904632568
T Nodo049  160.41029357910156 -90.47663879394531 1.5099999904632568  160.5154571533203 -90.37110137939453 1.5099999904632568  160.61669921875 -90.6204833984375 1.5099999904632568
T Nodo049  160.60935974121094 -90.27687072753906 1.5099999904632568  160.72203063964844 -90.16378784179688 1.5099999904632568  160.76268005371094 -90.29859161376953 1.5099999904632568
T Nodo049  160.72203063964844 -90.16378784179688 1.5099999904632568  160.81874084472656 -90.06672668457031 1.5099999904632568  160.85791015625 -90.2030258178711 1.5099999904632568
T Nodo049  160.81874084472656 -90.06672668457031 1.5099999904632568  160.92388916015625 -89.96118927001953 1.5099999904632568  160.95584106445312 -90.10513305664062 1.5099999904632568
T Nodo049  160.81874084472656 -90.06672668457031 1.5099999904632568  160.95584106445312 -90.10513305664062 1.5099999904632568  160.85791015625 -90.2030258178711 1.5099999904632568
T Nodo049  160.92388916015625 -89.96118927001953 1.5099999904632568  161.029052734375 -89.85565185546875 1.5099999904632568  161.05763244628906 -90.00548553466797 1.5099999904632568
T Nodo049  160.92388916015625 -89.96118927001953 1.5099999904632568  161.05763244628906 -90.00548553466797 1.5099999904632568  160.95584106445312 -90.10513305664062 1.5099999904632568
T Nodo049  161.029052734375 -89.85565185546875 1.5099999904632568  161.13609313964844 -89.74822235107422 1.5099999904632568  161.18222045898438 -89.89889526367188 1.5099999904632568
T Nodo049  161.029052734375 -89.85565185546875 1.5099999904632568  161.18222045898438 -89.89889526367188 1.5099999904632568  161.05763244628906 -90.00548553466797 1.5099999904632568
T Nodo049  160.17849731445312 -91.25 1.5099999904632568  160.17849731445312 -91.1157455444336 1.5099999904632568  160.31544494628906 -91.20472717285156 1.5099999904632568
T Nodo049  160.17849731445312 -91.1157455444336 1.5099999904632568  160.17849731445312 -90.91822052001953 1.5099999904632568  160.42584228515625 -90.9625244140625 1.5099999904632568
T Nodo049  160.0010986328125 -91.4000015258789 1.5099999904632568  160.06369018554688 -91.2780990600586 1.5099999904632568  160.12303161621094 -91.389892578125 1.5099999904632568
T Nodo049  160.0010986328125 -93.05000305175781 1.5099999904632568  160.0010986328125 -92.83879852294922 1.5099999904632568  160.21241760253906 -92.93965148925781 1.5099999904632568
T Nodo049  160.0010986328125 -92.3833999633789 1.5099999904632568  160.0010986328125 -91.66729736328125 1.5099999904632568  160.60108947753906 -92.36195373535156 1.5099999904632568
T Nodo049  160.04486083984375 -93.15589904785156 1.5099999904632568  160.0010986328125 -93.05000305175781 1.5099999904632568  160.17706298828125 -93.09233856201172 1.5099999904632568
T Nodo049  160.15109252929688 -93.19999694824219 1.5099999904632568  160.04486083984375 -93.15589904785156 1.5099999904632568  160.17706298828125 -93.09233856201172 1.5099999904632568
T Nodo049  160.0010986328125 -93.05000305175781 1.5099999904632568  160.21241760253906 -92.93965148925781 1.5099999904632568  160.17706298828125 -93.09233856201172 1.5099999904632568
T Nodo049  160.4510955810547 -93.19999694824219 1.5099999904632568  160.31729125976562 -93.19999694824219 1.5099999904632568  160.3483428955078 -93.0756607055664 1.5099999904632568
T Nodo049  160.31729125976562 -93.19999694824219 1.5099999904632568  160.15109252929688 -93.19999694824219 1.5099999904632568  160.17706298828125 -93.09233856201172 1.5099999904632568
T Nodo049  160.5559844970703 -93.1572265625 1.5099999904632568  160.4510955810547 -93.19999694824219 1.5099999904632568  160.4779815673828 -93.08440399169922 1.5099999904632568
T Nodo049  160.60108947753906 -93.05000305175781 1.5099999904632568  160.5559844970703 -93.1572265625 1.5099999904632568  160.4779815673828 -93.08440399169922 1.5099999904632568
T Nodo049  160.4510955810547 -93.19999694824219 1.5099999904632568  160.3483428955078 -93.0756607055664 1.5099999904632568  160.4779815673828 -93.08440399169922 1.5099999904632568
T Nodo049  161.62066650390625 -87.93643951416016 1.5099999904632568  161.3559112548828 -88.05113983154297 1.5099999904632568  161.45172119140625 -87.89768981933594 1.5099999904632568
T Nodo049  160.4510955810547 -91.25 1.5099999904632568  160.5470733642578 -91.28472137451172 1.5099999904632568  160.4366455078125 -91.37355041503906 1.5099999904632568
T Nodo049  160.5470733642578 -91.28472137451172 1.5099999904632568  160.60108947753906 -91.4000015258789 1.5099999904632568  160.4366455078125 -91.37355041503906 1.5099999904632568
T Nodo049  160.42608642578125 -90.81177520751953 1.5099999904632568  160.42584228515625 -90.9625244140625 1.5099999904632568  160.17849731445312 -90.91822052001953 1.5099999904632568
T Nodo049  161.36502075195312 -89.86945343017578 1.5099999904632568  161.2701873779297 -89.9646224975586 1.5099999904632568  161.18222045898438 -89.89889526367188 1.5099999904632568
T Nodo049  161.2701873779297 -89.9646224975586 1.5099999904632568  161.17630004882812 -90.0588607788086 1.5099999904632568  161.18222045898438 -89.89889526367188 1.5099999904632568
T Nodo049  161.17630004882812 -90.0588607788086 1.5099999904632568  161.08615112304688 -90.14932250976562 1.5099999904632568  161.05763244628906 -90.00548553466797 1.5099999904632568
T Nodo049  161.08615112304688 -90.14932250976562 1.5099999904632568  160.9913330078125 -90.24449920654297 1.5099999904632568  160.95584106445312 -90.10513305664062 1.5099999904632568
T Nodo049  160.9913330078125 -90.24449920654297 1.5099999904632568  160.89649963378906 -90.33966827392578 1.5099999904632568  160.85791015625 -90.2030258178711 1.5099999904632568
T Nodo049  160.89649963378906 -90.33966827392578 1.5099999904632568  160.80166625976562 -90.43484497070312 1.5099999904632568  160.76268005371094 -90.29859161376953 1.5099999904632568
T Nodo049  161.38482666015625 -89.19999694824219 1.5099999904632568  161.3845977783203 -89.32550048828125 1.5099999904632568  161.26483154296875 -89.26542663574219 1.5099999904632568
T Nodo049  161.3845977783203 -89.32550048828125 1.5099999904632568  161.38436889648438 -89.45037841796875 1.5099999904632568  161.26193237304688 -89.39692687988281 1.5099999904632568
T Nodo049  161.38436889648438 -89.45037841796875 1.5099999904632568  161.38414001464844 -89.57525634765625 1.5099999904632568  161.26315307617188 -89.53123474121094 1.5099999904632568
T Nodo049  161.38414001464844 -89.57525634765625 1.5099999904632568  161.3839111328125 -89.70013427734375 1.5099999904632568  161.27662658691406 -89.68344116210938 1.5099999904632568
T Nodo049  161.3839111328125 -89.70013427734375 1.5099999904632568  161.38369750976562 -89.82438659667969 1.5099999904632568  161.27662658691406 -89.68344116210938 1.5099999904632568
T Nodo049  161.61109924316406 -89.19999694824219 1.5099999904632568  161.38482666015625 -89.19999694824219 1.5099999904632568  161.42532348632812 -89.04684448242188 1.5099999904632568
T Nodo049  161.78759765625 -89.1270523071289 1.5099999904632568  161.61109924316406 -89.19999694824219 1.5099999904632568  161.63430786132812 -89.02141571044922 1.5099999904632568
T Nodo049  161.86109924316406 -88.94999694824219 1.5099999904632568  161.78759765625 -89.1270523071289 1.5099999904632568  161.63430786132812 -89.02141571044922 1.5099999904632568
T Nodo049  161.61109924316406 -89.19999694824219 1.5099999904632568  161.42532348632812 -89.04684448242188 1.5099999904632568  161.63430786132812 -89.02141571044922 1.5099999904632568
T Nodo049  161.61109924316406 -87.80000305175781 1.5099999904632568  161.78787231445312 -87.87322235107422 1.5099999904632568  161.62066650390625 -87.93643951416016 1.5099999904632568
T Nodo049  161.78787231445312 -87.87322235107422 1.5099999904632568  161.86109924316406 -88.05000305175781 1.5099999904632568  161.62066650390625 -87.93643951416016 1.5099999904632568
T Nodo049  161.39788818359375 -87.80000305175781 1.5099999904632568  161.61109924316406 -87.80000305175781 1.5099999904632568  161.45172119140625 -87.89768981933594 1.5099999904632568
T Nodo049  161.61109924316406 -87.80000305175781 1.5099999904632568  161.62066650390625 -87.93643951416016 1.5099999904632568  161.45172119140625 -87.89768981933594 1.5099999904632568
T Nodo049  161.39788818359375 -87.1663818359375 1.5099999904632568  161.39788818359375 -87.2721939086914 1.5099999904632568  161.2965087890625 -87.2165298461914 1.5099999904632568
T Nodo049  161.39788818359375 -87.2721939086914 1.5099999904632568  161.39788818359375 -87.37800598144531 1.5099999904632568  161.298828125 -87.32424926757812 1.5099999904632568
T Nodo049  161.39788818359375 -87.37800598144531 1.5099999904632568  161.39788818359375 -87.48319244384766 1.5099999904632568  161.2992401123047 -87.43020629882812 1.5099999904632568
T Nodo049  161.39788818359375 -87.48319244384766 1.5099999904632568  161.39788818359375 -87.58900451660156 1.5099999904632568  161.2993621826172 -87.53590393066406 1.5099999904632568
T Nodo049  161.39788818359375 -87.58900451660156 1.5099999904632568  161.39788818359375 -87.69481658935547 1.5099999904632568  161.2997589111328 -87.6419906616211 1.5099999904632568
T Nodo049  161.39788818359375 -87.69481658935547 1.5099999904632568  161.39788818359375 -87.80000305175781 1.5099999904632568  161.30194091796875 -87.74938201904297 1.5099999904632568
T Nodo049  161.64981079101562 -87.1663818359375 1.5099999904632568  161.39788818359375 -87.1663818359375 1.5099999904632568  161.50291442871094 -87.0045166015625 1.5099999904632568
T Nodo049  161.82659912109375 -87.09315490722656 1.5099999904632568  161.64981079101562 -87.1663818359375 1.5099999904632568  161.68353271484375 -86.94922637939453 1.5099999904632568
T Nodo049  161.89981079101562 -86.9163818359375 1.5099999904632568  161.82659912109375 -87.09315490722656 1.5099999904632568  161.68353271484375 -86.94922637939453 1.5099999904632568
T Nodo049  161.64981079101562 -87.1663818359375 1.5099999904632568  161.50291442871094 -87.0045166015625 1.5099999904632568  161.68353271484375 -86.94922637939453 1.5099999904632568
T Nodo049  161.89981079101562 -86.0163803100586 1.5099999904632568  161.89981079101562 -86.28727722167969 1.5099999904632568  161.74122619628906 -86.1986312866211 1.5099999904632568
T Nodo049  161.89981079101562 -86.28727722167969 1.5099999904632568  161.89981079101562 -86.64547729492188 1.5099999904632568  161.70916748046875 -86.43408966064453 1.5099999904632568
T Nodo049  161.89981079101562 -86.28727722167969 1.5099999904632568  161.70916748046875 -86.43408966064453 1.5099999904632568  161.74122619628906 -86.1986312866211 1.5099999904632568
T Nodo049  161.89981079101562 -86.64547729492188 1.5099999904632568  161.89981079101562 -86.9163818359375 1.5099999904632568  161.69911193847656 -86.71574401855469 1.5099999904632568
T Nodo049  161.70916748046875 -86.43408966064453 1.5099999904632568  161.89981079101562 -86.64547729492188 1.5099999904632568  161.69911193847656 -86.71574401855469 1.5099999904632568
T Nodo049  161.89981079101562 -86.9163818359375 1.5099999904632568  161.68353271484375 -86.94922637939453 1.5099999904632568  161.69911193847656 -86.71574401855469 1.5099999904632568
T Nodo049  161.82687377929688 -85.83988189697266 1.5099999904632568  161.89981079101562 -86.0163803100586 1.5099999904632568  161.6750946044922 -86.00688934326172 1.5099999904632568
T Nodo049  161.64981079101562 -85.7663803100586 1.5099999904632568  161.82687377929688 -85.83988189697266 1.5099999904632568  161.6750946044922 -86.00688934326172 1.5099999904632568
T Nodo049  161.89981079101562 -86.0163803100586 1.5099999904632568  161.74122619628906 -86.1986312866211 1.5099999904632568  161.6750946044922 -86.00688934326172 1.5099999904632568
T Nodo049  160.94981384277344 -85.7663803100586 1.5099999904632568  161.29281616210938 -85.7663803100586 1.5099999904632568  161.1224365234375 -85.99208068847656 1.5099999904632568
T Nodo049  160.94981384277344 -85.7663803100586 1.5099999904632568  161.1224365234375 -85.99208068847656 1.5099999904632568  160.89712524414062 -85.95975494384766 1.5099999904632568
T Nodo049  161.29281616210938 -85.7663803100586 1.5099999904632568  161.64981079101562 -85.7663803100586 1.5099999904632568  161.41424560546875 -86.00852966308594 1.5099999904632568
T Nodo049  161.1224365234375 -85.99208068847656 1.5099999904632568  161.29281616210938 -85.7663803100586 1.5099999904632568  161.41424560546875 -86.00852966308594 1.5099999904632568
T Nodo049  161.64981079101562 -85.7663803100586 1.5099999904632568  161.6750946044922 -86.00688934326172 1.5099999904632568  161.41424560546875 -86.00852966308594 1.5099999904632568
T Nodo049  160.42608642578125 -90.81177520751953 1.5099999904632568  160.30419921875 -90.58312225341797 1.5099999904632568  160.5209197998047 -90.71659851074219 1.5099999904632568
T Nodo049  160.5209197998047 -90.71659851074219 1.5099999904632568  160.30419921875 -90.58312225341797 1.5099999904632568  160.41029357910156 -90.47663879394531 1.5099999904632568
T Nodo049  160.5209197998047 -90.71659851074219 1.5099999904632568  160.41029357910156 -90.47663879394531 1.5099999904632568  160.61669921875 -90.6204833984375 1.5099999904632568
T Nodo049  161.1371307373047 -89.19999694824219 1.5099999904632568  160.9425506591797 -89.01985168457031 1.5099999904632568  161.20310974121094 -88.98160552978516 1.5099999904632568
T Nodo049  161.2965087890625 -87.2165298461914 1.5099999904632568  161.20101928710938 -87.1663818359375 1.5099999904632568  161.2813262939453 -87.09874725341797 1.5099999904632568
T Nodo049  161.2965087890625 -87.2165298461914 1.5099999904632568  161.2813262939453 -87.09874725341797 1.5099999904632568  161.39788818359375 -87.1663818359375 1.5099999904632568
T Nodo049  161.1055145263672 -87.80000305175781 1.5099999904632568  161.2003936767578 -87.80000305175781 1.5099999904632568  161.19898986816406 -87.90270233154297 1.5099999904632568
T Nodo049  161.26315307617188 -89.53123474121094 1.5099999904632568  161.13661193847656 -89.47356414794922 1.5099999904632568  161.26193237304688 -89.39692687988281 1.5099999904632568
T Nodo049  161.27662658691406 -89.68344116210938 1.5099999904632568  161.1363525390625 -89.6106185913086 1.5099999904632568  161.26315307617188 -89.53123474121094 1.5099999904632568
T Nodo049  160.60935974121094 -90.27687072753906 1.5099999904632568  160.76268005371094 -90.29859161376953 1.5099999904632568  160.68077087402344 -90.38441467285156 1.5099999904632568
T Nodo049  160.5154571533203 -90.37110137939453 1.5099999904632568  160.60935974121094 -90.27687072753906 1.5099999904632568  160.68077087402344 -90.38441467285156 1.5099999904632568
T Nodo049  160.76268005371094 -90.29859161376953 1.5099999904632568  160.80166625976562 -90.43484497070312 1.5099999904632568  160.68077087402344 -90.38441467285156 1.5099999904632568
T Nodo049  160.72203063964844 -90.16378784179688 1.5099999904632568  160.85791015625 -90.2030258178711 1.5099999904632568  160.76268005371094 -90.29859161376953 1.5099999904632568
T Nodo049  160.17849731445312 -91.25 1.5099999904632568  160.31544494628906 -91.20472717285156 1.5099999904632568  160.3358154296875 -91.28661346435547 1.5099999904632568
T Nodo049  160.17849731445312 -91.1157455444336 1.5099999904632568  160.42584228515625 -90.9625244140625 1.5099999904632568  160.42555236816406 -91.1378173828125 1.5099999904632568
T Nodo049  160.60108947753906 -91.4000015258789 1.5099999904632568  160.60108947753906 -91.63760375976562 1.5099999904632568  160.4366455078125 -91.37355041503906 1.5099999904632568
T Nodo049  160.06369018554688 -91.2780990600586 1.5099999904632568  160.15109252929688 -91.25 1.5099999904632568  160.12303161621094 -91.389892578125 1.5099999904632568
T Nodo049  160.0010986328125 -92.83879852294922 1.5099999904632568  160.0010986328125 -92.3833999633789 1.5099999904632568  160.30728149414062 -92.70758056640625 1.5099999904632568
T Nodo049  160.3483428955078 -93.0756607055664 1.5099999904632568  160.31729125976562 -93.19999694824219 1.5099999904632568  160.17706298828125 -93.09233856201172 1.5099999904632568
T Nodo049  160.85791015625 -90.2030258178711 1.5099999904632568  160.89649963378906 -90.33966827392578 1.5099999904632568  160.76268005371094 -90.29859161376953 1.5099999904632568
T Nodo049  160.60108947753906 -91.63760375976562 1.5099999904632568  160.60108947753906 -92.36195373535156 1.5099999904632568  160.0010986328125 -91.66729736328125 1.5099999904632568
T Nodo049  160.60108947753906 -92.36195373535156 1.5099999904632568  160.60108947753906 -92.80909729003906 1.5099999904632568  160.30728149414062 -92.70758056640625 1.5099999904632568
T Nodo049  160.60108947753906 -92.80909729003906 1.5099999904632568  160.60108947753906 -93.05000305175781 1.5099999904632568  160.4346160888672 -92.94158935546875 1.5099999904632568
T Nodo049  160.95584106445312 -90.10513305664062 1.5099999904632568  160.9913330078125 -90.24449920654297 1.5099999904632568  160.85791015625 -90.2030258178711 1.5099999904632568
T Nodo049  161.17630004882812 -90.0588607788086 1.5099999904632568  161.05763244628906 -90.00548553466797 1.5099999904632568  161.18222045898438 -89.89889526367188 1.5099999904632568
T Nodo049  160.42555236816406 -91.1378173828125 1.5099999904632568  160.42535400390625 -91.25 1.5099999904632568  160.31544494628906 -91.20472717285156 1.5099999904632568
T Nodo049  161.05763244628906 -90.00548553466797 1.5099999904632568  161.08615112304688 -90.14932250976562 1.5099999904632568  160.95584106445312 -90.10513305664062 1.5099999904632568
T Nodo049  161.38482666015625 -89.19999694824219 1.5099999904632568  161.26483154296875 -89.26542663574219 1.5099999904632568  161.28001403808594 -89.13504791259766 1.5099999904632568
T Nodo049  161.42532348632812 -89.04684448242188 1.5099999904632568  161.38482666015625 -89.19999694824219 1.5099999904632568  161.28001403808594 -89.13504791259766 1.5099999904632568
T Nodo049  161.26483154296875 -89.26542663574219 1.5099999904632568  161.1371307373047 -89.19999694824219 1.5099999904632568  161.28001403808594 -89.13504791259766 1.5099999904632568
T Nodo049  160.80166625976562 -90.43484497070312 1.5099999904632568  160.7058868408203 -90.53096008300781 1.5099999904632568  160.68077087402344 -90.38441467285156 1.5099999904632568
T Nodo049  160.7058868408203 -90.53096008300781 1.5099999904632568  160.61669921875 -90.6204833984375 1.5099999904632568  160.5154571533203 -90.37110137939453 1.5099999904632568
T Nodo049  161.1371307373047 -89.19999694824219 1.5099999904632568  161.20310974121094 -88.98160552978516 1.5099999904632568  161.28001403808594 -89.13504791259766 1.5099999904632568
T Nodo049  161.2813262939453 -87.09874725341797 1.5099999904632568  161.20101928710938 -87.1663818359375 1.5099999904632568  161.1651611328125 -87.05532836914062 1.5099999904632568
T Nodo049  161.3845977783203 -89.32550048828125 1.5099999904632568  161.26193237304688 -89.39692687988281 1.5099999904632568  161.26483154296875 -89.26542663574219 1.5099999904632568
T Nodo049  161.38436889648438 -89.45037841796875 1.5099999904632568  161.26315307617188 -89.53123474121094 1.5099999904632568  161.26193237304688 -89.39692687988281 1.5099999904632568
T Nodo049  161.38414001464844 -89.57525634765625 1.5099999904632568  161.27662658691406 -89.68344116210938 1.5099999904632568  161.26315307617188 -89.53123474121094 1.5099999904632568
T Nodo049  161.298828125 -87.32424926757812 1.5099999904632568  161.39788818359375 -87.37800598144531 1.5099999904632568  161.2992401123047 -87.43020629882812 1.5099999904632568
T Nodo049  161.86109924316406 -88.05000305175781 1.5099999904632568  161.86109924316406 -88.54409790039062 1.5099999904632568  161.13729858398438 -88.35503387451172 1.5099999904632568
T Nodo049  161.86109924316406 -88.54409790039062 1.5099999904632568  161.86109924316406 -88.94999694824219 1.5099999904632568  161.4727325439453 -88.78353881835938 1.5099999904632568
T Nodo049  161.2965087890625 -87.2165298461914 1.5099999904632568  161.39788818359375 -87.2721939086914 1.5099999904632568  161.298828125 -87.32424926757812 1.5099999904632568
T Nodo049  161.13729858398438 -88.35503387451172 1.5099999904632568  161.86109924316406 -88.54409790039062 1.5099999904632568  161.4727325439453 -88.78353881835938 1.5099999904632568
T Nodo049  161.39788818359375 -87.48319244384766 1.5099999904632568  161.2993621826172 -87.53590393066406 1.5099999904632568  161.2992401123047 -87.43020629882812 1.5099999904632568
T Nodo049  161.39788818359375 -87.58900451660156 1.5099999904632568  161.2997589111328 -87.6419906616211 1.5099999904632568  161.2993621826172 -87.53590393066406 1.5099999904632568
T Nodo049  161.39788818359375 -87.69481658935547 1.5099999904632568  161.30194091796875 -87.74938201904297 1.5099999904632568  161.2997589111328 -87.6419906616211 1.5099999904632568
T Nodo049  161.2003936767578 -87.80000305175781 1.5099999904632568  161.30194091796875 -87.74938201904297 1.5099999904632568  161.31544494628906 -87.86455535888672 1.5099999904632568
T Nodo049  161.30194091796875 -87.74938201904297 1.5099999904632568  161.39788818359375 -87.80000305175781 1.5099999904632568  161.31544494628906 -87.86455535888672 1.5099999904632568
T Nodo049  160.31544494628906 -91.20472717285156 1.5099999904632568  160.42535400390625 -91.25 1.5099999904632568  160.3358154296875 -91.28661346435547 1.5099999904632568
T Nodo049  160.0010986328125 -92.83879852294922 1.5099999904632568  160.30728149414062 -92.70758056640625 1.5099999904632568  160.21241760253906 -92.93965148925781 1.5099999904632568
T Nodo049  161.19898986816406 -87.90270233154297 1.5099999904632568  161.2003936767578 -87.80000305175781 1.5099999904632568  161.31544494628906 -87.86455535888672 1.5099999904632568
T Nodo049  160.95266723632812 -86.77581024169922 1.5099999904632568  160.96292114257812 -86.48160552978516 1.5099999904632568  161.2506561279297 -86.73249053955078 1.5099999904632568
T Nodo049  161.31544494628906 -87.86455535888672 1.5099999904632568  161.39788818359375 -87.80000305175781 1.5099999904632568  161.45172119140625 -87.89768981933594 1.5099999904632568
T Nodo049  161.39788818359375 -87.1663818359375 1.5099999904632568  161.2813262939453 -87.09874725341797 1.5099999904632568  161.3672332763672 -87.02660369873047 1.5099999904632568
T Nodo049  161.00645446777344 -88.74618530273438 1.5099999904632568  160.6610870361328 -88.54049682617188 1.5099999904632568  161.13729858398438 -88.35503387451172 1.5099999904632568
T Nodo049  160.9425506591797 -89.01985168457031 1.5099999904632568  161.00645446777344 -88.74618530273438 1.5099999904632568  161.20310974121094 -88.98160552978516 1.5099999904632568
T Nodo049  160.19715881347656 -90.6905517578125 1.5099999904632568  160.42608642578125 -90.81177520751953 1.5099999904632568  160.17849731445312 -90.73561096191406 1.5099999904632568
T Nodo049  160.6610870361328 -88.54049682617188 1.5099999904632568  160.6610870361328 -88.05000305175781 1.5099999904632568  161.13729858398438 -88.35503387451172 1.5099999904632568
T Nodo049  161.3672332763672 -87.02660369873047 1.5099999904632568  161.2813262939453 -87.09874725341797 1.5099999904632568  161.26065063476562 -86.96228790283203 1.5099999904632568
T Nodo049  161.18222045898438 -89.89889526367188 1.5099999904632568  161.13609313964844 -89.74822235107422 1.5099999904632568  161.27188110351562 -89.80570983886719 1.5099999904632568
T Nodo049  160.0010986328125 -91.4000015258789 1.5099999904632568  160.12303161621094 -91.389892578125 1.5099999904632568  160.0010986328125 -91.66729736328125 1.5099999904632568
T Nodo049  160.30728149414062 -92.70758056640625 1.5099999904632568  160.0010986328125 -92.3833999633789 1.5099999904632568  160.60108947753906 -92.36195373535156 1.5099999904632568
T Nodo049  160.3483428955078 -93.0756607055664 1.5099999904632568  160.17706298828125 -93.09233856201172 1.5099999904632568  160.21241760253906 -92.93965148925781 1.5099999904632568
T Nodo049  160.30728149414062 -92.70758056640625 1.5099999904632568  160.60108947753906 -92.80909729003906 1.5099999904632568  160.4346160888672 -92.94158935546875 1.5099999904632568
T Nodo049  160.12303161621094 -91.389892578125 1.5099999904632568  160.15109252929688 -91.25 1.5099999904632568  160.20675659179688 -91.3362808227539 1.5099999904632568
T Nodo049  161.2813262939453 -87.09874725341797 1.5099999904632568  161.1651611328125 -87.05532836914062 1.5099999904632568  161.26065063476562 -86.96228790283203 1.5099999904632568
T Nodo049  161.38369750976562 -89.82438659667969 1.5099999904632568  161.36502075195312 -89.86945343017578 1.5099999904632568  161.27188110351562 -89.80570983886719 1.5099999904632568
T Nodo049  160.89712524414062 -85.95975494384766 1.5099999904632568  161.1224365234375 -85.99208068847656 1.5099999904632568  160.93255615234375 -86.17517852783203 1.5099999904632568
T Nodo049  161.6750946044922 -86.00688934326172 1.5099999904632568  161.74122619628906 -86.1986312866211 1.5099999904632568  161.53700256347656 -86.24510192871094 1.5099999904632568
T Nodo049  161.6750946044922 -86.00688934326172 1.5099999904632568  161.53700256347656 -86.24510192871094 1.5099999904632568  161.41424560546875 -86.00852966308594 1.5099999904632568
T Nodo049  161.42532348632812 -89.04684448242188 1.5099999904632568  161.28001403808594 -89.13504791259766 1.5099999904632568  161.20310974121094 -88.98160552978516 1.5099999904632568
T Nodo049  161.19898986816406 -87.90270233154297 1.5099999904632568  161.31544494628906 -87.86455535888672 1.5099999904632568  161.3559112548828 -88.05113983154297 1.5099999904632568
T Nodo049  161.68353271484375 -86.94922637939453 1.5099999904632568  161.50291442871094 -87.0045166015625 1.5099999904632568  161.50990295410156 -86.80319213867188 1.5099999904632568
T Nodo049  161.68353271484375 -86.94922637939453 1.5099999904632568  161.50990295410156 -86.80319213867188 1.5099999904632568  161.69911193847656 -86.71574401855469 1.5099999904632568
T Nodo049  160.12303161621094 -91.389892578125 1.5099999904632568  160.20675659179688 -91.3362808227539 1.5099999904632568  160.25979614257812 -91.48491668701172 1.5099999904632568
T Nodo049  161.42532348632812 -89.04684448242188 1.5099999904632568  161.20310974121094 -88.98160552978516 1.5099999904632568  161.4727325439453 -88.78353881835938 1.5099999904632568
T Nodo049  160.96292114257812 -86.48160552978516 1.5099999904632568  160.93255615234375 -86.17517852783203 1.5099999904632568  161.2396697998047 -86.3028564453125 1.5099999904632568
T Nodo049  161.2506561279297 -86.73249053955078 1.5099999904632568  160.96292114257812 -86.48160552978516 1.5099999904632568  161.2396697998047 -86.3028564453125 1.5099999904632568
T Nodo049  160.93255615234375 -86.17517852783203 1.5099999904632568  161.1224365234375 -85.99208068847656 1.5099999904632568  161.2396697998047 -86.3028564453125 1.5099999904632568
T Nodo049  161.31544494628906 -87.86455535888672 1.5099999904632568  161.45172119140625 -87.89768981933594 1.5099999904632568  161.3559112548828 -88.05113983154297 1.5099999904632568
T Nodo049  161.1651611328125 -87.05532836914062 1.5099999904632568  161.12063598632812 -87.1663818359375 1.5099999904632568  160.97909545898438 -87.0096206665039 1.5099999904632568
T Nodo049  161.86109924316406 -88.05000305175781 1.5099999904632568  161.13729858398438 -88.35503387451172 1.5099999904632568  161.3559112548828 -88.05113983154297 1.5099999904632568
T Nodo049  161.13729858398438 -88.35503387451172 1.5099999904632568  161.4727325439453 -88.78353881835938 1.5099999904632568  161.00645446777344 -88.74618530273438 1.5099999904632568
T Nodo049  161.20310974121094 -88.98160552978516 1.5099999904632568  161.00645446777344 -88.74618530273438 1.5099999904632568  161.4727325439453 -88.78353881835938 1.5099999904632568
T Nodo049  160.7058868408203 -90.53096008300781 1.5099999904632568  160.5154571533203 -90.37110137939453 1.5099999904632568  160.68077087402344 -90.38441467285156 1.5099999904632568
T Nodo049  160.17849731445312 -91.1157455444336 1.5099999904632568  160.42555236816406 -91.1378173828125 1.5099999904632568  160.31544494628906 -91.20472717285156 1.5099999904632568
T Nodo049  160.0010986328125 -91.66729736328125 1.5099999904632568  160.12303161621094 -91.389892578125 1.5099999904632568  160.25979614257812 -91.48491668701172 1.5099999904632568
T Nodo049  161.1651611328125 -87.05532836914062 1.5099999904632568  160.97909545898438 -87.0096206665039 1.5099999904632568  161.119140625 -86.90605163574219 1.5099999904632568
T Nodo049  161.26065063476562 -86.96228790283203 1.5099999904632568  161.1651611328125 -87.05532836914062 1.5099999904632568  161.119140625 -86.90605163574219 1.5099999904632568
T Nodo049  160.97909545898438 -87.0096206665039 1.5099999904632568  160.95266723632812 -86.77581024169922 1.5099999904632568  161.119140625 -86.90605163574219 1.5099999904632568
T Nodo049  161.3559112548828 -88.05113983154297 1.5099999904632568  161.13729858398438 -88.35503387451172 1.5099999904632568  161.08717346191406 -87.98905181884766 1.5099999904632568
T Nodo049  161.119140625 -86.90605163574219 1.5099999904632568  160.95266723632812 -86.77581024169922 1.5099999904632568  161.2506561279297 -86.73249053955078 1.5099999904632568
T Nodo049  160.17849731445312 -90.91822052001953 1.5099999904632568  160.17849731445312 -90.73561096191406 1.5099999904632568  160.42608642578125 -90.81177520751953 1.5099999904632568
T Nodo049  160.60108947753906 -93.05000305175781 1.5099999904632568  160.4779815673828 -93.08440399169922 1.5099999904632568  160.4346160888672 -92.94158935546875 1.5099999904632568
T Nodo049  160.4779815673828 -93.08440399169922 1.5099999904632568  160.3483428955078 -93.0756607055664 1.5099999904632568  160.4346160888672 -92.94158935546875 1.5099999904632568
T Nodo049  161.42532348632812 -89.04684448242188 1.5099999904632568  161.4727325439453 -88.78353881835938 1.5099999904632568  161.63430786132812 -89.02141571044922 1.5099999904632568
T Nodo049  160.4366455078125 -91.37355041503906 1.5099999904632568  160.60108947753906 -91.63760375976562 1.5099999904632568  160.25979614257812 -91.48491668701172 1.5099999904632568
T Nodo049  160.4346160888672 -92.94158935546875 1.5099999904632568  160.3483428955078 -93.0756607055664 1.5099999904632568  160.21241760253906 -92.93965148925781 1.5099999904632568
T Nodo049  161.86109924316406 -88.94999694824219 1.5099999904632568  161.63430786132812 -89.02141571044922 1.5099999904632568  161.4727325439453 -88.78353881835938 1.5099999904632568
T Nodo049  161.39788818359375 -87.1663818359375 1.5099999904632568  161.3672332763672 -87.02660369873047 1.5099999904632568  161.50291442871094 -87.0045166015625 1.5099999904632568
T Nodo049  161.74122619628906 -86.1986312866211 1.5099999904632568  161.70916748046875 -86.43408966064453 1.5099999904632568  161.53700256347656 -86.24510192871094 1.5099999904632568
T Nodo049  161.1224365234375 -85.99208068847656 1.5099999904632568  161.41424560546875 -86.00852966308594 1.5099999904632568  161.2396697998047 -86.3028564453125 1.5099999904632568
T Nodo049  160.17849731445312 -91.25 1.5099999904632568  160.3358154296875 -91.28661346435547 1.5099999904632568  160.20675659179688 -91.3362808227539 1.5099999904632568
T Nodo049  160.30728149414062 -92.70758056640625 1.5099999904632568  160.4346160888672 -92.94158935546875 1.5099999904632568  160.21241760253906 -92.93965148925781 1.5099999904632568
T Nodo049  161.1055145263672 -87.80000305175781 1.5099999904632568  161.19898986816406 -87.90270233154297 1.5099999904632568  161.08717346191406 -87.98905181884766 1.5099999904632568
T Nodo049  161.50291442871094 -87.0045166015625 1.5099999904632568  161.3672332763672 -87.02660369873047 1.5099999904632568  161.38385009765625 -86.90524291992188 1.5099999904632568
T Nodo049  161.50291442871094 -87.0045166015625 1.5099999904632568  161.38385009765625 -86.90524291992188 1.5099999904632568  161.50990295410156 -86.80319213867188 1.5099999904632568
T Nodo049  161.08717346191406 -87.98905181884766 1.5099999904632568  161.19898986816406 -87.90270233154297 1.5099999904632568  161.3559112548828 -88.05113983154297 1.5099999904632568
T Nodo049  161.38385009765625 -86.90524291992188 1.5099999904632568  161.3672332763672 -87.02660369873047 1.5099999904632568  161.26065063476562 -86.96228790283203 1.5099999904632568
T Nodo049  160.4366455078125 -91.37355041503906 1.5099999904632568  160.25979614257812 -91.48491668701172 1.5099999904632568  160.20675659179688 -91.3362808227539 1.5099999904632568
T Nodo049  160.20675659179688 -91.3362808227539 1.5099999904632568  160.3358154296875 -91.28661346435547 1.5099999904632568  160.4366455078125 -91.37355041503906 1.5099999904632568
T Nodo049  160.42535400390625 -91.25 1.5099999904632568  160.4510955810547 -91.25 1.5099999904632568  160.41299438476562 -91.2939453125 1.5099999904632568
T Nodo049  161.26065063476562 -86.96228790283203 1.5099999904632568  161.119140625 -86.90605163574219 1.5099999904632568  161.2506561279297 -86.73249053955078 1.5099999904632568
T Nodo049  161.69911193847656 -86.71574401855469 1.5099999904632568  161.50990295410156 -86.80319213867188 1.5099999904632568  161.48788452148438 -86.54237365722656 1.5099999904632568
T Nodo049  161.69911193847656 -86.71574401855469 1.5099999904632568  161.48788452148438 -86.54237365722656 1.5099999904632568  161.70916748046875 -86.43408966064453 1.5099999904632568
T Nodo049  161.27188110351562 -89.80570983886719 1.5099999904632568  161.36502075195312 -89.86945343017578 1.5099999904632568  161.18222045898438 -89.89889526367188 1.5099999904632568
T Nodo049  160.42535400390625 -91.25 1.5099999904632568  160.41299438476562 -91.2939453125 1.5099999904632568  160.3358154296875 -91.28661346435547 1.5099999904632568
T Nodo049  161.53700256347656 -86.24510192871094 1.5099999904632568  161.70916748046875 -86.43408966064453 1.5099999904632568  161.48788452148438 -86.54237365722656 1.5099999904632568
T Nodo049  161.38369750976562 -89.82438659667969 1.5099999904632568  161.27188110351562 -89.80570983886719 1.5099999904632568  161.27662658691406 -89.68344116210938 1.5099999904632568
T Nodo049  160.15109252929688 -91.25 1.5099999904632568  160.17849731445312 -91.25 1.5099999904632568  160.20675659179688 -91.3362808227539 1.5099999904632568
T Nodo049  161.48788452148438 -86.54237365722656 1.5099999904632568  161.50990295410156 -86.80319213867188 1.5099999904632568  161.2506561279297 -86.73249053955078 1.5099999904632568
T Nodo049  161.2506561279297 -86.73249053955078 1.5099999904632568  161.2396697998047 -86.3028564453125 1.5099999904632568  161.48788452148438 -86.54237365722656 1.5099999904632568
T Nodo049  161.41424560546875 -86.00852966308594 1.5099999904632568  161.53700256347656 -86.24510192871094 1.5099999904632568  161.2396697998047 -86.3028564453125 1.5099999904632568
T Nodo049  160.88255310058594 -87.99525451660156 1.5099999904632568  161.08717346191406 -87.98905181884766 1.5099999904632568  161.13729858398438 -88.35503387451172 1.5099999904632568
T Nodo049  161.50990295410156 -86.80319213867188 1.5099999904632568  161.38385009765625 -86.90524291992188 1.5099999904632568  161.2506561279297 -86.73249053955078 1.5099999904632568
T Nodo049  160.0010986328125 -91.66729736328125 1.5099999904632568  160.25979614257812 -91.48491668701172 1.5099999904632568  160.60108947753906 -91.63760375976562 1.5099999904632568
T Nodo049  160.4510955810547 -91.25 1.5099999904632568  160.4366455078125 -91.37355041503906 1.5099999904632568  160.41299438476562 -91.2939453125 1.5099999904632568
T Nodo049  161.2396697998047 -86.3028564453125 1.5099999904632568  161.53700256347656 -86.24510192871094 1.5099999904632568  161.48788452148438 -86.54237365722656 1.5099999904632568
T Nodo049  160.41299438476562 -91.2939453125 1.5099999904632568  160.4366455078125 -91.37355041503906 1.5099999904632568  160.3358154296875 -91.28661346435547 1.5099999904632568
T Nodo049  161.26065063476562 -86.96228790283203 1.5099999904632568  161.2506561279297 -86.73249053955078 1.5099999904632568  161.38385009765625 -86.90524291992188 1.5099999904632568
T Nodo049  161.27662658691406 -89.68344116210938 1.5099999904632568  161.27188110351562 -89.80570983886719 1.5099999904632568  161.13609313964844 -89.74822235107422 1.5099999904632568
T Nodo049  161.86109924316406 -88.05000305175781 1.5099999904632568  161.3559112548828 -88.05113983154297 1.5099999904632568  161.62066650390625 -87.93643951416016 1.5099999904632568
T Nodo049  161.13729858398438 -88.35503387451172 1.5099999904632568  160.6610870361328 -88.05000305175781 1.5099999904632568  160.88255310058594 -87.99525451660156 1.5099999904632568
T Nodo049  161.61227416992188 -87.1663818359375 1.5099999904632568  161.64981079101562 -87.1663818359375 1.5099999904632568  161.6148223876953 -87.1663818359375 1.5499999523162842
T Nodo049  161.5749969482422 -87.1663818359375 1.5099999904632568  161.61227416992188 -87.1663818359375 1.5099999904632568  161.5805206298828 -87.1663818359375 1.5499999523162842
T Nodo049  161.53770446777344 -87.1663818359375 1.5099999904632568  161.5749969482422 -87.1663818359375 1.5099999904632568  161.54551696777344 -87.1663818359375 1.5499999523162842
T Nodo049  161.5049591064453 -87.1663818359375 1.5099999904632568  161.53770446777344 -87.1663818359375 1.5099999904632568  161.51121520996094 -87.1663818359375 1.5499999523162842
T Nodo049  161.46768188476562 -87.1663818359375 1.5099999904632568  161.5049591064453 -87.1663818359375 1.5099999904632568  161.47621154785156 -87.1663818359375 1.5499999523162842
T Nodo049  161.43038940429688 -87.1663818359375 1.5099999904632568  161.46768188476562 -87.1663818359375 1.5099999904632568  161.44190979003906 -87.1663818359375 1.5499999523162842
T Nodo049  161.39788818359375 -87.1663818359375 1.5099999904632568  161.43038940429688 -87.1663818359375 1.5099999904632568  161.39788818359375 -87.1663818359375 1.5449999570846558
T Nodo049  161.64981079101562 -87.1663818359375 1.5099999904632568  161.64981079101562 -87.1663818359375 1.5499999523162842  161.6148223876953 -87.1663818359375 1.5499999523162842
T Nodo049  161.6148223876953 -87.1663818359375 1.5499999523162842  161.5805206298828 -87.1663818359375 1.5499999523162842  161.61227416992188 -87.1663818359375 1.5099999904632568
T Nodo049  161.5805206298828 -87.1663818359375 1.5499999523162842  161.54551696777344 -87.1663818359375 1.5499999523162842  161.5749969482422 -87.1663818359375 1.5099999904632568
T Nodo049  161.54551696777344 -87.1663818359375 1.5499999523162842  161.51121520996094 -87.1663818359375 1.5499999523162842  161.53770446777344 -87.1663818359375 1.5099999904632568
T Nodo049  161.51121520996094 -87.1663818359375 1.5499999523162842  161.47621154785156 -87.1663818359375 1.5499999523162842  161.5049591064453 -87.1663818359375 1.5099999904632568
T Nodo049  161.47621154785156 -87.1663818359375 1.5499999523162842  161.44190979003906 -87.1663818359375 1.5499999523162842  161.46768188476562 -87.1663818359375 1.5099999904632568
T Nodo049  161.1962127685547 -87.1663818359375 1.5499999523162842  161.15701293945312 -87.1663818359375 1.5499999523162842  161.162841796875 -87.1663818359375 1.5099999904632568
T Nodo049  161.15701293945312 -87.1663818359375 1.5499999523162842  161.12271118164062 -87.1663818359375 1.5499999523162842  161.1254119873047 -87.1663818359375 1.5099999904632568
T Nodo049  161.12271118164062 -87.1663818359375 1.5499999523162842  161.0877227783203 -87.1663818359375 1.5499999523162842  161.08773803710938 -87.1663818359375 1.5099999904632568
T Nodo049  161.0877227783203 -87.1663818359375 1.5499999523162842  161.0534210205078 -87.1663818359375 1.5499999523162842  161.0543212890625 -87.1663818359375 1.5099999904632568
T Nodo049  161.0534210205078 -87.1663818359375 1.5499999523162842  161.01841735839844 -87.1663818359375 1.5499999523162842  161.02090454101562 -87.1663818359375 1.5099999904632568
T Nodo049  161.01841735839844 -87.1663818359375 1.5499999523162842  160.98411560058594 -87.1663818359375 1.5499999523162842  160.98297119140625 -87.1663818359375 1.5099999904632568
T Nodo049  160.98411560058594 -87.1663818359375 1.5499999523162842  160.94981384277344 -87.1663818359375 1.5499999523162842  160.98297119140625 -87.1663818359375 1.5099999904632568
T Nodo049  160.94981384277344 -87.1663818359375 1.5499999523162842  160.94981384277344 -87.1663818359375 1.5099999904632568  160.98297119140625 -87.1663818359375 1.5099999904632568
T Nodo049  161.1254119873047 -87.1663818359375 1.5099999904632568  161.162841796875 -87.1663818359375 1.5099999904632568  161.15701293945312 -87.1663818359375 1.5499999523162842
T Nodo049  161.08773803710938 -87.1663818359375 1.5099999904632568  161.1254119873047 -87.1663818359375 1.5099999904632568  161.12271118164062 -87.1663818359375 1.5499999523162842
T Nodo049  161.0543212890625 -87.1663818359375 1.5099999904632568  161.08773803710938 -87.1663818359375 1.5099999904632568  161.0877227783203 -87.1663818359375 1.5499999523162842
T Nodo049  161.02090454101562 -87.1663818359375 1.5099999904632568  161.0543212890625 -87.1663818359375 1.5099999904632568  161.0534210205078 -87.1663818359375 1.5499999523162842
T Nodo049  160.98297119140625 -87.1663818359375 1.5099999904632568  161.02090454101562 -87.1663818359375 1.5099999904632568  161.01841735839844 -87.1663818359375 1.5499999523162842
T Nodo049  161.43038940429688 -87.1663818359375 1.5099999904632568  161.44190979003906 -87.1663818359375 1.5499999523162842  161.40762329101562 -87.1663818359375 1.5499999523162842
T Nodo049  161.162841796875 -87.1663818359375 1.5099999904632568  161.20101928710938 -87.1663818359375 1.5099999904632568  161.20101928710938 -87.1663818359375 1.5449999570846558
T Nodo049  161.40762329101562 -87.1663818359375 1.5499999523162842  161.37332153320312 -87.1663818359375 1.5499999523162842  161.39788818359375 -87.1663818359375 1.5449999570846558
T Nodo049  161.37332153320312 -87.1663818359375 1.5499999523162842  161.33901977539062 -87.1663818359375 1.5499999523162842  161.35989379882812 -87.1663818359375 1.5449999570846558
T Nodo049  161.33901977539062 -87.1663818359375 1.5499999523162842  161.30331420898438 -87.1663818359375 1.5499999523162842  161.3209228515625 -87.1663818359375 1.5449999570846558
T Nodo049  161.43038940429688 -87.1663818359375 1.5099999904632568  161.40762329101562 -87.1663818359375 1.5499999523162842  161.39788818359375 -87.1663818359375 1.5449999570846558
T Nodo049  161.35989379882812 -87.1663818359375 1.5449999570846558  161.33901977539062 -87.1663818359375 1.5499999523162842  161.3209228515625 -87.1663818359375 1.5449999570846558
T Nodo049  161.3209228515625 -87.1663818359375 1.5449999570846558  161.30331420898438 -87.1663818359375 1.5499999523162842  161.2781982421875 -87.1663818359375 1.5449999570846558
T Nodo049  161.37332153320312 -87.1663818359375 1.5499999523162842  161.35989379882812 -87.1663818359375 1.5449999570846558  161.39788818359375 -87.1663818359375 1.5449999570846558
T Nodo049  161.30331420898438 -87.1663818359375 1.5499999523162842  161.26551818847656 -87.1663818359375 1.5499999523162842  161.2781982421875 -87.1663818359375 1.5449999570846558
T Nodo049  161.26551818847656 -87.1663818359375 1.5499999523162842  161.2305145263672 -87.1663818359375 1.5499999523162842  161.23980712890625 -87.1663818359375 1.5449999570846558
T Nodo049  161.2305145263672 -87.1663818359375 1.5499999523162842  161.1962127685547 -87.1663818359375 1.5499999523162842  161.20101928710938 -87.1663818359375 1.5449999570846558
T Nodo049  161.20101928710938 -87.1663818359375 1.5449999570846558  161.1962127685547 -87.1663818359375 1.5499999523162842  161.162841796875 -87.1663818359375 1.5099999904632568
T Nodo049  161.23980712890625 -87.1663818359375 1.5449999570846558  161.2305145263672 -87.1663818359375 1.5499999523162842  161.20101928710938 -87.1663818359375 1.5449999570846558
T Nodo049  161.2781982421875 -87.1663818359375 1.5449999570846558  161.26551818847656 -87.1663818359375 1.5499999523162842  161.23980712890625 -87.1663818359375 1.5449999570846558
T Nodo049  160.7738800048828 -85.83877563476562 1.5499999523162842  160.69981384277344 -86.0163803100586 1.5499999523162842  160.88990783691406 -85.89309692382812 1.5499999523162842
T Nodo049  160.7738800048828 -85.83877563476562 1.5499999523162842  160.88990783691406 -85.89309692382812 1.5499999523162842  160.94981384277344 -85.7663803100586 1.5499999523162842
T Nodo049  161.3026123046875 -85.7663803100586 1.5499999523162842  160.94981384277344 -85.7663803100586 1.5499999523162842  161.11131286621094 -85.96907043457031 1.5499999523162842
T Nodo049  160.94981384277344 -85.7663803100586 1.5499999523162842  160.88990783691406 -85.89309692382812 1.5499999523162842  161.11131286621094 -85.96907043457031 1.5499999523162842
T Nodo049  161.82687377929688 -85.83988189697266 1.5499999523162842  161.64981079101562 -85.7663803100586 1.5499999523162842  161.6560821533203 -85.95490264892578 1.5499999523162842
T Nodo049  161.82687377929688 -85.83988189697266 1.5499999523162842  161.6560821533203 -85.95490264892578 1.5499999523162842  161.89981079101562 -86.0163803100586 1.5499999523162842
T Nodo049  161.82659912109375 -87.09315490722656 1.5499999523162842  161.89981079101562 -86.9163818359375 1.5499999523162842  161.70318603515625 -86.97251892089844 1.5499999523162842
T Nodo049  161.82659912109375 -87.09315490722656 1.5499999523162842  161.70318603515625 -86.97251892089844 1.5499999523162842  161.64981079101562 -87.1663818359375 1.5499999523162842
T Nodo049  160.94981384277344 -87.1663818359375 1.5499999523162842  161.2543182373047 -87.1663818359375 1.5499999523162842  161.16050720214844 -86.87704467773438 1.5499999523162842
T Nodo049  160.77276611328125 -87.09288024902344 1.5499999523162842  160.94981384277344 -87.1663818359375 1.5499999523162842  160.89479064941406 -86.92469787597656 1.5499999523162842
T Nodo049  160.69981384277344 -86.9163818359375 1.5499999523162842  160.77276611328125 -87.09288024902344 1.5499999523162842  160.89479064941406 -86.92469787597656 1.5499999523162842
T Nodo049  160.94981384277344 -87.1663818359375 1.5499999523162842  161.16050720214844 -86.87704467773438 1.5499999523162842  160.89479064941406 -86.92469787597656 1.5499999523162842
T Nodo049  161.64981079101562 -85.7663803100586 1.5499999523162842  161.3026123046875 -85.7663803100586 1.5499999523162842  161.4187774658203 -85.94666290283203 1.5499999523162842
T Nodo049  161.89981079101562 -86.39707946777344 1.5499999523162842  161.89981079101562 -86.0163803100586 1.5499999523162842  161.40301513671875 -86.25160217285156 1.5499999523162842
T Nodo049  161.64981079101562 -85.7663803100586 1.5499999523162842  161.4187774658203 -85.94666290283203 1.5499999523162842  161.6560821533203 -85.95490264892578 1.5499999523162842
T Nodo049  160.69981384277344 -86.0163803100586 1.5499999523162842  160.69981384277344 -86.45468139648438 1.5499999523162842  161.40301513671875 -86.25160217285156 1.5499999523162842
T Nodo049  161.3026123046875 -85.7663803100586 1.5499999523162842  161.11131286621094 -85.96907043457031 1.5499999523162842  161.4187774658203 -85.94666290283203 1.5499999523162842
T Nodo049  161.89981079101562 -86.39707946777344 1.5499999523162842  161.40301513671875 -86.25160217285156 1.5499999523162842  161.40277099609375 -86.61225891113281 1.5499999523162842
T Nodo049  161.70318603515625 -86.97251892089844 1.5499999523162842  161.89981079101562 -86.9163818359375 1.5499999523162842  161.67259216308594 -86.76336669921875 1.5499999523162842
T Nodo049  161.64981079101562 -87.1663818359375 1.5499999523162842  161.70318603515625 -86.97251892089844 1.5499999523162842  161.47328186035156 -86.93126678466797 1.5499999523162842
T Nodo049  161.89981079101562 -86.9163818359375 1.5499999523162842  161.89981079101562 -86.39707946777344 1.5499999523162842  161.67259216308594 -86.76336669921875 1.5499999523162842
T Nodo049  161.16050720214844 -86.87704467773438 1.5499999523162842  161.2543182373047 -87.1663818359375 1.5499999523162842  161.47328186035156 -86.93126678466797 1.5499999523162842
T Nodo049  161.40301513671875 -86.25160217285156 1.5499999523162842  160.69981384277344 -86.45468139648438 1.5499999523162842  161.40277099609375 -86.61225891113281 1.5499999523162842
T Nodo049  161.2543182373047 -87.1663818359375 1.5499999523162842  161.64981079101562 -87.1663818359375 1.5499999523162842  161.47328186035156 -86.93126678466797 1.5499999523162842
T Nodo049  161.40301513671875 -86.25160217285156 1.5499999523162842  161.89981079101562 -86.0163803100586 1.5499999523162842  161.6560821533203 -85.95490264892578 1.5499999523162842
T Nodo049  161.70318603515625 -86.97251892089844 1.5499999523162842  161.67259216308594 -86.76336669921875 1.5499999523162842  161.47328186035156 -86.93126678466797 1.5499999523162842
T Nodo049  161.40277099609375 -86.61225891113281 1.5499999523162842  160.69981384277344 -86.45468139648438 1.5499999523162842  161.16050720214844 -86.87704467773438 1.5499999523162842
T Nodo049  160.69981384277344 -86.45468139648438 1.5499999523162842  160.69981384277344 -86.9163818359375 1.5499999523162842  160.89479064941406 -86.92469787597656 1.5499999523162842
T Nodo049  161.47328186035156 -86.93126678466797 1.5499999523162842  161.67259216308594 -86.76336669921875 1.5499999523162842  161.40277099609375 -86.61225891113281 1.5499999523162842
T Nodo049  161.16050720214844 -86.87704467773438 1.5499999523162842  161.47328186035156 -86.93126678466797 1.5499999523162842  161.40277099609375 -86.61225891113281 1.5499999523162842
T Nodo049  161.67259216308594 -86.76336669921875 1.5499999523162842  161.89981079101562 -86.39707946777344 1.5499999523162842  161.40277099609375 -86.61225891113281 1.5499999523162842
T Nodo049  161.6560821533203 -85.95490264892578 1.5499999523162842  161.4187774658203 -85.94666290283203 1.5499999523162842  161.40301513671875 -86.25160217285156 1.5499999523162842
T Nodo049  161.16050720214844 -86.87704467773438 1.5499999523162842  160.69981384277344 -86.45468139648438 1.5499999523162842  160.89479064941406 -86.92469787597656 1.5499999523162842
T Nodo049  160.69981384277344 -86.0163803100586 1.5499999523162842  161.40301513671875 -86.25160217285156 1.5499999523162842  161.11131286621094 -85.96907043457031 1.5499999523162842
T Nodo049  161.40301513671875 -86.25160217285156 1.5499999523162842  161.4187774658203 -85.94666290283203 1.5499999523162842  161.11131286621094 -85.96907043457031 1.5499999523162842
T Nodo049  160.69981384277344 -86.0163803100586 1.5499999523162842  161.11131286621094 -85.96907043457031 1.5499999523162842  160.88990783691406 -85.89309692382812 1.5499999523162842
T Nodo049  160.94927978515625 -87.80000305175781 1.5099999904632568  160.9110870361328 -87.80000305175781 1.5099999904632568  160.94679260253906 -87.80000305175781 1.5499999523162842
T Nodo049  160.9903564453125 -87.80000305175781 1.5099999904632568  160.94927978515625 -87.80000305175781 1.5099999904632568  160.98179626464844 -87.80000305175781 1.5499999523162842
T Nodo049  161.03260803222656 -87.80000305175781 1.5099999904632568  160.9903564453125 -87.80000305175781 1.5099999904632568  161.0223846435547 -87.80000305175781 1.5499999523162842
T Nodo049  161.07455444335938 -87.80000305175781 1.5099999904632568  161.03260803222656 -87.80000305175781 1.5099999904632568  161.06089782714844 -87.80000305175781 1.5499999523162842
T Nodo049  161.1165008544922 -87.80000305175781 1.5099999904632568  161.07455444335938 -87.80000305175781 1.5099999904632568  161.10009765625 -87.80000305175781 1.5499999523162842
T Nodo049  161.15757751464844 -87.80000305175781 1.5099999904632568  161.1165008544922 -87.80000305175781 1.5099999904632568  161.1357879638672 -87.80000305175781 1.5499999523162842
T Nodo049  161.2003936767578 -87.80000305175781 1.5099999904632568  161.15757751464844 -87.80000305175781 1.5099999904632568  161.2003936767578 -87.80000305175781 1.5449999570846558
T Nodo049  160.9110870361328 -87.80000305175781 1.5099999904632568  160.9110870361328 -87.80000305175781 1.5499999523162842  160.94679260253906 -87.80000305175781 1.5499999523162842
T Nodo049  160.94679260253906 -87.80000305175781 1.5499999523162842  160.98179626464844 -87.80000305175781 1.5499999523162842  160.94927978515625 -87.80000305175781 1.5099999904632568
T Nodo049  160.98179626464844 -87.80000305175781 1.5499999523162842  161.0223846435547 -87.80000305175781 1.5499999523162842  160.9903564453125 -87.80000305175781 1.5099999904632568
T Nodo049  161.0223846435547 -87.80000305175781 1.5499999523162842  161.06089782714844 -87.80000305175781 1.5499999523162842  161.03260803222656 -87.80000305175781 1.5099999904632568
T Nodo049  161.06089782714844 -87.80000305175781 1.5499999523162842  161.10009765625 -87.80000305175781 1.5499999523162842  161.07455444335938 -87.80000305175781 1.5099999904632568
T Nodo049  161.10009765625 -87.80000305175781 1.5499999523162842  161.1357879638672 -87.80000305175781 1.5499999523162842  161.1165008544922 -87.80000305175781 1.5099999904632568
T Nodo049  161.42138671875 -87.80000305175781 1.5499999523162842  161.46128845214844 -87.80000305175781 1.5499999523162842  161.43243408203125 -87.80000305175781 1.5099999904632568
T Nodo049  161.46128845214844 -87.80000305175781 1.5499999523162842  161.4962921142578 -87.80000305175781 1.5499999523162842  161.4701690673828 -87.80000305175781 1.5099999904632568
T Nodo049  161.4962921142578 -87.80000305175781 1.5499999523162842  161.53199768066406 -87.80000305175781 1.5499999523162842  161.50448608398438 -87.80000305175781 1.5099999904632568
T Nodo049  161.53199768066406 -87.80000305175781 1.5499999523162842  161.57119750976562 -87.80000305175781 1.5499999523162842  161.538818359375 -87.80000305175781 1.5099999904632568
T Nodo049  161.57119750976562 -87.80000305175781 1.5499999523162842  161.61109924316406 -87.80000305175781 1.5499999523162842  161.57676696777344 -87.80000305175781 1.5099999904632568
T Nodo049  161.61109924316406 -87.80000305175781 1.5499999523162842  161.61109924316406 -87.80000305175781 1.5099999904632568  161.57676696777344 -87.80000305175781 1.5099999904632568
T Nodo049  161.43243408203125 -87.80000305175781 1.5099999904632568  161.39788818359375 -87.80000305175781 1.5099999904632568  161.42138671875 -87.80000305175781 1.5499999523162842
T Nodo049  161.4701690673828 -87.80000305175781 1.5099999904632568  161.43243408203125 -87.80000305175781 1.5099999904632568  161.46128845214844 -87.80000305175781 1.5499999523162842
T Nodo049  161.50448608398438 -87.80000305175781 1.5099999904632568  161.4701690673828 -87.80000305175781 1.5099999904632568  161.4962921142578 -87.80000305175781 1.5499999523162842
T Nodo049  161.538818359375 -87.80000305175781 1.5099999904632568  161.50448608398438 -87.80000305175781 1.5099999904632568  161.53199768066406 -87.80000305175781 1.5499999523162842
T Nodo049  161.57676696777344 -87.80000305175781 1.5099999904632568  161.538818359375 -87.80000305175781 1.5099999904632568  161.57119750976562 -87.80000305175781 1.5499999523162842
T Nodo049  161.15757751464844 -87.80000305175781 1.5099999904632568  161.1357879638672 -87.80000305175781 1.5499999523162842  161.17079162597656 -87.80000305175781 1.5499999523162842
T Nodo049  161.3863983154297 -87.80000305175781 1.5499999523162842  161.42138671875 -87.80000305175781 1.5499999523162842  161.39788818359375 -87.80000305175781 1.5449999570846558
T Nodo049  161.39788818359375 -87.80000305175781 1.5099999904632568  161.39788818359375 -87.80000305175781 1.5449999570846558  161.42138671875 -87.80000305175781 1.5499999523162842
T Nodo049  161.3863983154297 -87.80000305175781 1.5499999523162842  161.39788818359375 -87.80000305175781 1.5449999570846558  161.35919189453125 -87.80000305175781 1.5449999570846558
T Nodo049  161.17079162597656 -87.80000305175781 1.5499999523162842  161.2064971923828 -87.80000305175781 1.5499999523162842  161.2003936767578 -87.80000305175781 1.5449999570846558
T Nodo049  161.2064971923828 -87.80000305175781 1.5499999523162842  161.24429321289062 -87.80000305175781 1.5499999523162842  161.2410888671875 -87.80000305175781 1.5449999570846558
T Nodo049  161.2806854248047 -87.80000305175781 1.5499999523162842  161.31568908691406 -87.80000305175781 1.5499999523162842  161.28176879882812 -87.80000305175781 1.5449999570846558
T Nodo049  161.31568908691406 -87.80000305175781 1.5499999523162842  161.3513946533203 -87.80000305175781 1.5499999523162842  161.32008361816406 -87.80000305175781 1.5449999570846558
T Nodo049  161.3513946533203 -87.80000305175781 1.5499999523162842  161.3863983154297 -87.80000305175781 1.5499999523162842  161.35919189453125 -87.80000305175781 1.5449999570846558
T Nodo049  161.17079162597656 -87.80000305175781 1.5499999523162842  161.2003936767578 -87.80000305175781 1.5449999570846558  161.15757751464844 -87.80000305175781 1.5099999904632568
T Nodo049  161.2003936767578 -87.80000305175781 1.5449999570846558  161.2064971923828 -87.80000305175781 1.5499999523162842  161.2410888671875 -87.80000305175781 1.5449999570846558
T Nodo049  161.31568908691406 -87.80000305175781 1.5499999523162842  161.32008361816406 -87.80000305175781 1.5449999570846558  161.28176879882812 -87.80000305175781 1.5449999570846558
T Nodo049  161.3513946533203 -87.80000305175781 1.5499999523162842  161.35919189453125 -87.80000305175781 1.5449999570846558  161.32008361816406 -87.80000305175781 1.5449999570846558
T Nodo049  161.2410888671875 -87.80000305175781 1.5449999570846558  161.24429321289062 -87.80000305175781 1.5499999523162842  161.28176879882812 -87.80000305175781 1.5449999570846558
T Nodo049  161.2806854248047 -87.80000305175781 1.5499999523162842  161.28176879882812 -87.80000305175781 1.5449999570846558  161.24429321289062 -87.80000305175781 1.5499999523162842
T Nodo049  160.7351531982422 -87.87239074707031 1.5499999523162842  160.6610870361328 -88.05000305175781 1.5499999523162842  160.85118103027344 -87.92671203613281 1.5499999523162842
T Nodo049  160.7351531982422 -87.87239074707031 1.5499999523162842  160.85118103027344 -87.92671203613281 1.5499999523162842  160.9110870361328 -87.80000305175781 1.5499999523162842
T Nodo049  161.26388549804688 -87.80000305175781 1.5499999523162842  160.9110870361328 -87.80000305175781 1.5499999523162842  161.0725860595703 -88.00269317626953 1.5499999523162842
T Nodo049  160.9110870361328 -87.80000305175781 1.5499999523162842  160.85118103027344 -87.92671203613281 1.5499999523162842  161.0725860595703 -88.00269317626953 1.5499999523162842
T Nodo049  161.78787231445312 -87.87322235107422 1.5499999523162842  161.61109924316406 -87.80000305175781 1.5499999523162842  161.61732482910156 -87.98847198486328 1.5499999523162842
T Nodo049  161.78787231445312 -87.87322235107422 1.5499999523162842  161.61732482910156 -87.98847198486328 1.5499999523162842  161.86109924316406 -88.05000305175781 1.5499999523162842
T Nodo049  161.78759765625 -89.1270523071289 1.5499999523162842  161.86109924316406 -88.94999694824219 1.5499999523162842  161.6643829345703 -89.00621032714844 1.5499999523162842
T Nodo049  161.78759765625 -89.1270523071289 1.5499999523162842  161.6643829345703 -89.00621032714844 1.5499999523162842  161.61109924316406 -89.19999694824219 1.5499999523162842
T Nodo049  160.9110870361328 -89.19999694824219 1.5499999523162842  161.21559143066406 -89.19999694824219 1.5499999523162842  161.1217803955078 -88.91067504882812 1.5499999523162842
T Nodo049  160.73403930664062 -89.12649536132812 1.5499999523162842  160.9110870361328 -89.19999694824219 1.5499999523162842  160.8560791015625 -88.95832061767578 1.5499999523162842
T Nodo049  160.6610870361328 -88.94999694824219 1.5499999523162842  160.73403930664062 -89.12649536132812 1.5499999523162842  160.8560791015625 -88.95832061767578 1.5499999523162842
T Nodo049  160.9110870361328 -89.19999694824219 1.5499999523162842  161.1217803955078 -88.91067504882812 1.5499999523162842  160.8560791015625 -88.95832061767578 1.5499999523162842
T Nodo049  161.61109924316406 -87.80000305175781 1.5499999523162842  161.26388549804688 -87.80000305175781 1.5499999523162842  161.38003540039062 -87.98027038574219 1.5499999523162842
T Nodo049  161.86109924316406 -88.43070220947266 1.5499999523162842  161.86109924316406 -88.05000305175781 1.5499999523162842  161.3642578125 -88.28520202636719 1.5499999523162842
T Nodo049  161.61109924316406 -87.80000305175781 1.5499999523162842  161.38003540039062 -87.98027038574219 1.5499999523162842  161.61732482910156 -87.98847198486328 1.5499999523162842
T Nodo049  160.6610870361328 -88.05000305175781 1.5499999523162842  160.6610870361328 -88.48829650878906 1.5499999523162842  161.3642578125 -88.28520202636719 1.5499999523162842
T Nodo049  161.26388549804688 -87.80000305175781 1.5499999523162842  161.0725860595703 -88.00269317626953 1.5499999523162842  161.38003540039062 -87.98027038574219 1.5499999523162842
T Nodo049  161.86109924316406 -88.43070220947266 1.5499999523162842  161.3642578125 -88.28520202636719 1.5499999523162842  161.364013671875 -88.64588928222656 1.5499999523162842
T Nodo049  161.6643829345703 -89.00621032714844 1.5499999523162842  161.86109924316406 -88.94999694824219 1.5499999523162842  161.6338348388672 -88.7970199584961 1.5499999523162842
T Nodo049  161.61109924316406 -89.19999694824219 1.5499999523162842  161.6643829345703 -89.00621032714844 1.5499999523162842  161.43453979492188 -88.96492004394531 1.5499999523162842
T Nodo049  161.86109924316406 -88.94999694824219 1.5499999523162842  161.86109924316406 -88.43070220947266 1.5499999523162842  161.6338348388672 -88.7970199584961 1.5499999523162842
T Nodo049  161.1217803955078 -88.91067504882812 1.5499999523162842  161.21559143066406 -89.19999694824219 1.5499999523162842  161.43453979492188 -88.96492004394531 1.5499999523162842
T Nodo049  161.3642578125 -88.28520202636719 1.5499999523162842  160.6610870361328 -88.48829650878906 1.5499999523162842  161.364013671875 -88.64588928222656 1.5499999523162842
T Nodo049  161.21559143066406 -89.19999694824219 1.5499999523162842  161.61109924316406 -89.19999694824219 1.5499999523162842  161.43453979492188 -88.96492004394531 1.5499999523162842
T Nodo049  161.3642578125 -88.28520202636719 1.5499999523162842  161.86109924316406 -88.05000305175781 1.5499999523162842  161.61732482910156 -87.98847198486328 1.5499999523162842
T Nodo049  161.6643829345703 -89.00621032714844 1.5499999523162842  161.6338348388672 -88.7970199584961 1.5499999523162842  161.43453979492188 -88.96492004394531 1.5499999523162842
T Nodo049  161.364013671875 -88.64588928222656 1.5499999523162842  160.6610870361328 -88.48829650878906 1.5499999523162842  161.1217803955078 -88.91067504882812 1.5499999523162842
T Nodo049  160.6610870361328 -88.48829650878906 1.5499999523162842  160.6610870361328 -88.94999694824219 1.5499999523162842  160.8560791015625 -88.95832061767578 1.5499999523162842
T Nodo049  161.43453979492188 -88.96492004394531 1.5499999523162842  161.6338348388672 -88.7970199584961 1.5499999523162842  161.364013671875 -88.64588928222656 1.5499999523162842
T Nodo049  161.1217803955078 -88.91067504882812 1.5499999523162842  161.43453979492188 -88.96492004394531 1.5499999523162842  161.364013671875 -88.64588928222656 1.5499999523162842
T Nodo049  161.6338348388672 -88.7970199584961 1.5499999523162842  161.86109924316406 -88.43070220947266 1.5499999523162842  161.364013671875 -88.64588928222656 1.5499999523162842
T Nodo049  161.61732482910156 -87.98847198486328 1.5499999523162842  161.38003540039062 -87.98027038574219 1.5499999523162842  161.3642578125 -88.28520202636719 1.5499999523162842
T Nodo049  161.1217803955078 -88.91067504882812 1.5499999523162842  160.6610870361328 -88.48829650878906 1.5499999523162842  160.8560791015625 -88.95832061767578 1.5499999523162842
T Nodo049  160.6610870361328 -88.05000305175781 1.5499999523162842  161.3642578125 -88.28520202636719 1.5499999523162842  161.0725860595703 -88.00269317626953 1.5499999523162842
T Nodo049  161.3642578125 -88.28520202636719 1.5499999523162842  161.38003540039062 -87.98027038574219 1.5499999523162842  161.0725860595703 -88.00269317626953 1.5499999523162842
T Nodo049  160.6610870361328 -88.05000305175781 1.5499999523162842  161.0725860595703 -88.00269317626953 1.5499999523162842  160.85118103027344 -87.92671203613281 1.5499999523162842
T Nodo049  161.57240295410156 -89.19999694824219 1.5099999904632568  161.61109924316406 -89.19999694824219 1.5099999904632568  161.57469177246094 -89.19999694824219 1.5499999523162842
T Nodo049  161.533935546875 -89.19999694824219 1.5099999904632568  161.57240295410156 -89.19999694824219 1.5099999904632568  161.5389862060547 -89.19999694824219 1.5499999523162842
T Nodo049  161.49546813964844 -89.19999694824219 1.5099999904632568  161.533935546875 -89.19999694824219 1.5099999904632568  161.5032958984375 -89.19999694824219 1.5499999523162842
T Nodo049  161.4604034423828 -89.19999694824219 1.5099999904632568  161.49546813964844 -89.19999694824219 1.5099999904632568  161.46759033203125 -89.19999694824219 1.5499999523162842
T Nodo049  161.4232940673828 -89.19999694824219 1.5099999904632568  161.4604034423828 -89.19999694824219 1.5099999904632568  161.42698669433594 -89.19999694824219 1.5499999523162842
T Nodo049  161.38482666015625 -89.19999694824219 1.5099999904632568  161.4232940673828 -89.19999694824219 1.5099999904632568  161.38482666015625 -89.19999694824219 1.5449999570846558
T Nodo049  161.61109924316406 -89.19999694824219 1.5099999904632568  161.61109924316406 -89.19999694824219 1.5499999523162842  161.57469177246094 -89.19999694824219 1.5499999523162842
T Nodo049  161.57469177246094 -89.19999694824219 1.5499999523162842  161.5389862060547 -89.19999694824219 1.5499999523162842  161.57240295410156 -89.19999694824219 1.5099999904632568
T Nodo049  161.5389862060547 -89.19999694824219 1.5499999523162842  161.5032958984375 -89.19999694824219 1.5499999523162842  161.533935546875 -89.19999694824219 1.5099999904632568
T Nodo049  161.5032958984375 -89.19999694824219 1.5499999523162842  161.46759033203125 -89.19999694824219 1.5499999523162842  161.49546813964844 -89.19999694824219 1.5099999904632568
T Nodo049  161.46759033203125 -89.19999694824219 1.5499999523162842  161.42698669433594 -89.19999694824219 1.5499999523162842  161.4604034423828 -89.19999694824219 1.5099999904632568
T Nodo049  161.09799194335938 -89.19999694824219 1.5499999523162842  161.05809020996094 -89.19999694824219 1.5499999523162842  161.06027221679688 -89.19999694824219 1.5099999904632568
T Nodo049  161.05809020996094 -89.19999694824219 1.5499999523162842  161.0181884765625 -89.19999694824219 1.5499999523162842  161.02410888671875 -89.19999694824219 1.5099999904632568
T Nodo049  161.0181884765625 -89.19999694824219 1.5499999523162842  160.9824981689453 -89.19999694824219 1.5499999523162842  160.9877166748047 -89.19999694824219 1.5099999904632568
T Nodo049  160.9824981689453 -89.19999694824219 1.5499999523162842  160.94679260253906 -89.19999694824219 1.5499999523162842  160.94747924804688 -89.19999694824219 1.5099999904632568
T Nodo049  160.94679260253906 -89.19999694824219 1.5499999523162842  160.9110870361328 -89.19999694824219 1.5499999523162842  160.9110870361328 -89.19999694824219 1.5099999904632568
T Nodo049  161.0989227294922 -89.19999694824219 1.5099999904632568  161.1371307373047 -89.19999694824219 1.5099999904632568  161.1371307373047 -89.19999694824219 1.5449999570846558
T Nodo049  161.06027221679688 -89.19999694824219 1.5099999904632568  161.0989227294922 -89.19999694824219 1.5099999904632568  161.09799194335938 -89.19999694824219 1.5499999523162842
T Nodo049  161.02410888671875 -89.19999694824219 1.5099999904632568  161.06027221679688 -89.19999694824219 1.5099999904632568  161.05809020996094 -89.19999694824219 1.5499999523162842
T Nodo049  160.9877166748047 -89.19999694824219 1.5099999904632568  161.02410888671875 -89.19999694824219 1.5099999904632568  161.0181884765625 -89.19999694824219 1.5499999523162842
T Nodo049  160.94747924804688 -89.19999694824219 1.5099999904632568  160.9877166748047 -89.19999694824219 1.5099999904632568  160.9824981689453 -89.19999694824219 1.5499999523162842
T Nodo049  160.9110870361328 -89.19999694824219 1.5099999904632568  160.94747924804688 -89.19999694824219 1.5099999904632568  160.94679260253906 -89.19999694824219 1.5499999523162842
T Nodo049  161.4232940673828 -89.19999694824219 1.5099999904632568  161.42698669433594 -89.19999694824219 1.5499999523162842  161.39129638671875 -89.19999694824219 1.5499999523162842
T Nodo049  161.3513946533203 -89.19999694824219 1.5499999523162842  161.31639099121094 -89.19999694824219 1.5499999523162842  161.345947265625 -89.19999694824219 1.5449999570846558
T Nodo049  161.31639099121094 -89.19999694824219 1.5499999523162842  161.27999877929688 -89.19999694824219 1.5499999523162842  161.31126403808594 -89.19999694824219 1.5449999570846558
T Nodo049  161.27999877929688 -89.19999694824219 1.5499999523162842  161.2449951171875 -89.19999694824219 1.5499999523162842  161.27609252929688 -89.19999694824219 1.5449999570846558
T Nodo049  161.2449951171875 -89.19999694824219 1.5499999523162842  161.20928955078125 -89.19999694824219 1.5499999523162842  161.2416534423828 -89.19999694824219 1.5449999570846558
T Nodo049  161.20928955078125 -89.19999694824219 1.5499999523162842  161.17359924316406 -89.19999694824219 1.5499999523162842  161.2072296142578 -89.19999694824219 1.5449999570846558
T Nodo049  161.17359924316406 -89.19999694824219 1.5499999523162842  161.1378936767578 -89.19999694824219 1.5499999523162842  161.17205810546875 -89.19999694824219 1.5449999570846558
T Nodo049  161.2072296142578 -89.19999694824219 1.5449999570846558  161.17359924316406 -89.19999694824219 1.5499999523162842  161.17205810546875 -89.19999694824219 1.5449999570846558
T Nodo049  161.345947265625 -89.19999694824219 1.5449999570846558  161.31639099121094 -89.19999694824219 1.5499999523162842  161.31126403808594 -89.19999694824219 1.5449999570846558
T Nodo049  161.3513946533203 -89.19999694824219 1.5499999523162842  161.345947265625 -89.19999694824219 1.5449999570846558  161.38482666015625 -89.19999694824219 1.5449999570846558
T Nodo049  161.27999877929688 -89.19999694824219 1.5499999523162842  161.27609252929688 -89.19999694824219 1.5449999570846558  161.31126403808594 -89.19999694824219 1.5449999570846558
T Nodo049  161.2449951171875 -89.19999694824219 1.5499999523162842  161.2416534423828 -89.19999694824219 1.5449999570846558  161.27609252929688 -89.19999694824219 1.5449999570846558
T Nodo049  161.20928955078125 -89.19999694824219 1.5499999523162842  161.2072296142578 -89.19999694824219 1.5449999570846558  161.2416534423828 -89.19999694824219 1.5449999570846558
T Nodo049  161.1371307373047 -89.19999694824219 1.5449999570846558  161.09799194335938 -89.19999694824219 1.5499999523162842  161.0989227294922 -89.19999694824219 1.5099999904632568
T Nodo049  161.17205810546875 -89.19999694824219 1.5449999570846558  161.1378936767578 -89.19999694824219 1.5499999523162842  161.1371307373047 -89.19999694824219 1.5449999570846558
T Nodo049  161.38482666015625 -89.19999694824219 1.5449999570846558  161.4232940673828 -89.19999694824219 1.5099999904632568  161.39129638671875 -89.19999694824219 1.5499999523162842
T Nodo049  161.39129638671875 -89.19999694824219 1.5499999523162842  161.3513946533203 -89.19999694824219 1.5499999523162842  161.38482666015625 -89.19999694824219 1.5449999570846558
T Nodo049  161.1378936767578 -89.19999694824219 1.5499999523162842  161.09799194335938 -89.19999694824219 1.5499999523162842  161.1371307373047 -89.19999694824219 1.5449999570846558
T Nodo049  161.3845977783203 -89.32487487792969 1.5449999570846558  161.38482666015625 -89.19999694824219 1.5449999570846558  161.24462890625 -89.19999694824219 1.5449999570846558
T Nodo049  161.38436889648438 -89.44975280761719 1.5449999570846558  161.3845977783203 -89.32487487792969 1.5449999570846558  161.2594451904297 -89.3875503540039 1.5449999570846558
T Nodo049  161.38414001464844 -89.57463073730469 1.5449999570846558  161.38436889648438 -89.44975280761719 1.5449999570846558  161.2611846923828 -89.52316284179688 1.5449999570846558
T Nodo049  161.38436889648438 -89.44975280761719 1.5449999570846558  161.2594451904297 -89.3875503540039 1.5449999570846558  161.2611846923828 -89.52316284179688 1.5449999570846558
T Nodo049  161.3839111328125 -89.69950866699219 1.5449999570846558  161.38414001464844 -89.57463073730469 1.5449999570846558  161.26498413085938 -89.64876556396484 1.5449999570846558
T Nodo049  161.38414001464844 -89.57463073730469 1.5449999570846558  161.2611846923828 -89.52316284179688 1.5449999570846558  161.26498413085938 -89.64876556396484 1.5449999570846558
T Nodo049  161.38369750976562 -89.82438659667969 1.5449999570846558  161.3839111328125 -89.69950866699219 1.5449999570846558  161.27890014648438 -89.7569580078125 1.5449999570846558
T Nodo049  161.3839111328125 -89.69950866699219 1.5449999570846558  161.26498413085938 -89.64876556396484 1.5449999570846558  161.27890014648438 -89.7569580078125 1.5449999570846558
T Nodo049  161.24462890625 -89.19999694824219 1.5449999570846558  161.1371307373047 -89.19999694824219 1.5449999570846558  161.13687133789062 -89.33650970458984 1.5449999570846558
T Nodo049  161.1363525390625 -89.6106185913086 1.5449999570846558  161.13609313964844 -89.74822235107422 1.5449999570846558  161.26498413085938 -89.64876556396484 1.5449999570846558
T Nodo049  161.13661193847656 -89.47356414794922 1.5449999570846558  161.1363525390625 -89.6106185913086 1.5449999570846558  161.2611846923828 -89.52316284179688 1.5449999570846558
T Nodo049  161.13687133789062 -89.33650970458984 1.5449999570846558  161.13661193847656 -89.47356414794922 1.5449999570846558  161.2594451904297 -89.3875503540039 1.5449999570846558
T Nodo049  160.29481506347656 -90.59254455566406 1.5449999570846558  160.19715881347656 -90.6905517578125 1.5449999570846558  160.3496856689453 -90.72016143798828 1.5449999570846558
T Nodo049  160.3915252685547 -90.4954833984375 1.5449999570846558  160.29481506347656 -90.59254455566406 1.5449999570846558  160.4106903076172 -90.61463928222656 1.5449999570846558
T Nodo049  160.48728942871094 -90.39936828613281 1.5449999570846558  160.3915252685547 -90.4954833984375 1.5449999570846558  160.5037384033203 -90.5489273071289 1.5449999570846558
T Nodo049  160.3915252685547 -90.4954833984375 1.5449999570846558  160.4106903076172 -90.61463928222656 1.5449999570846558  160.5037384033203 -90.5489273071289 1.5449999570846558
T Nodo049  160.57554626464844 -90.310791015625 1.5449999570846558  160.48728942871094 -90.39936828613281 1.5449999570846558  160.5972442626953 -90.46240234375 1.5449999570846558
T Nodo049  160.48728942871094 -90.39936828613281 1.5449999570846558  160.5037384033203 -90.5489273071289 1.5449999570846558  160.5972442626953 -90.46240234375 1.5449999570846558
T Nodo049  160.66380310058594 -90.22221374511719 1.5449999570846558  160.57554626464844 -90.310791015625 1.5449999570846558  160.6885528564453 -90.37237548828125 1.5449999570846558
T Nodo049  160.57554626464844 -90.310791015625 1.5449999570846558  160.5972442626953 -90.46240234375 1.5449999570846558  160.6885528564453 -90.37237548828125 1.5449999570846558
T Nodo049  160.75958251953125 -90.1260986328125 1.5449999570846558  160.66380310058594 -90.22221374511719 1.5449999570846558  160.78097534179688 -90.28002166748047 1.5449999570846558
T Nodo049  160.66380310058594 -90.22221374511719 1.5449999570846558  160.6885528564453 -90.37237548828125 1.5449999570846558  160.78097534179688 -90.28002166748047 1.5449999570846558
T Nodo049  160.8553466796875 -90.02997589111328 1.5449999570846558  160.75958251953125 -90.1260986328125 1.5449999570846558  160.87538146972656 -90.18538665771484 1.5449999570846558
T Nodo049  160.75958251953125 -90.1260986328125 1.5449999570846558  160.78097534179688 -90.28002166748047 1.5449999570846558  160.87538146972656 -90.18538665771484 1.5449999570846558
T Nodo049  160.94361877441406 -89.94139862060547 1.5449999570846558  160.8553466796875 -90.02997589111328 1.5449999570846558  160.97018432617188 -90.09041595458984 1.5449999570846558
T Nodo049  160.8553466796875 -90.02997589111328 1.5449999570846558  160.87538146972656 -90.18538665771484 1.5449999570846558  160.97018432617188 -90.09041595458984 1.5449999570846558
T Nodo049  161.04031372070312 -89.8443374633789 1.5449999570846558  160.94361877441406 -89.94139862060547 1.5449999570846558  161.0683135986328 -89.99337005615234 1.5449999570846558
T Nodo049  161.13609313964844 -89.74822235107422 1.5449999570846558  161.04031372070312 -89.8443374633789 1.5449999570846558  161.219970703125 -89.86270904541016 1.5449999570846558
T Nodo049  161.04031372070312 -89.8443374633789 1.5449999570846558  161.0683135986328 -89.99337005615234 1.5449999570846558  161.219970703125 -89.86270904541016 1.5449999570846558
T Nodo049  160.17849731445312 -91.12140655517578 1.5449999570846558  160.17849731445312 -91.25 1.5449999570846558  160.2910614013672 -91.25 1.5449999570846558
T Nodo049  160.17849731445312 -90.99280548095703 1.5449999570846558  160.17849731445312 -91.12140655517578 1.5449999570846558  160.29664611816406 -91.04155731201172 1.5449999570846558
T Nodo049  160.17849731445312 -90.86369323730469 1.5449999570846558  160.17849731445312 -90.99280548095703 1.5449999570846558  160.29644775390625 -90.92420196533203 1.5449999570846558
T Nodo049  160.17849731445312 -90.99280548095703 1.5449999570846558  160.29664611816406 -91.04155731201172 1.5449999570846558  160.29644775390625 -90.92420196533203 1.5449999570846558
T Nodo049  160.2910614013672 -91.25 1.5449999570846558  160.42535400390625 -91.25 1.5449999570846558  160.425537109375 -91.14088439941406 1.5449999570846558
T Nodo049  160.2910614013672 -91.25 1.5449999570846558  160.425537109375 -91.14088439941406 1.5449999570846558  160.17849731445312 -91.12140655517578 1.5449999570846558
T Nodo049  160.4259033203125 -90.92176818847656 1.5449999570846558  160.42608642578125 -90.81177520751953 1.5449999570846558  160.34800720214844 -90.8343734741211 1.5449999570846558
T Nodo049  161.2701873779297 -89.9646224975586 1.5449999570846558  161.36502075195312 -89.86945343017578 1.5449999570846558  161.219970703125 -89.86270904541016 1.5449999570846558
T Nodo049  161.17630004882812 -90.0588607788086 1.5449999570846558  161.2701873779297 -89.9646224975586 1.5449999570846558  161.219970703125 -89.86270904541016 1.5449999570846558
T Nodo049  161.08522033691406 -90.15026092529297 1.5449999570846558  161.17630004882812 -90.0588607788086 1.5449999570846558  161.0683135986328 -89.99337005615234 1.5449999570846558
T Nodo049  160.99038696289062 -90.24543762207031 1.5449999570846558  161.08522033691406 -90.15026092529297 1.5449999570846558  160.97018432617188 -90.09041595458984 1.5449999570846558
T Nodo049  160.89649963378906 -90.33966827392578 1.5449999570846558  160.99038696289062 -90.24543762207031 1.5449999570846558  160.87538146972656 -90.18538665771484 1.5449999570846558
T Nodo049  160.80166625976562 -90.43484497070312 1.5449999570846558  160.89649963378906 -90.33966827392578 1.5449999570846558  160.78097534179688 -90.28002166748047 1.5449999570846558
T Nodo049  160.71058654785156 -90.52625274658203 1.5449999570846558  160.80166625976562 -90.43484497070312 1.5449999570846558  160.6885528564453 -90.37237548828125 1.5449999570846558
T Nodo049  160.61575317382812 -90.62142944335938 1.5449999570846558  160.71058654785156 -90.52625274658203 1.5449999570846558  160.5972442626953 -90.46240234375 1.5449999570846558
T Nodo049  160.51998901367188 -90.71754455566406 1.5449999570846558  160.61575317382812 -90.62142944335938 1.5449999570846558  160.5037384033203 -90.5489273071289 1.5449999570846558
T Nodo049  160.25741577148438 -90.78458404541016 1.5449999570846558  160.34800720214844 -90.8343734741211 1.5449999570846558  160.3496856689453 -90.72016143798828 1.5449999570846558
T Nodo049  161.3845977783203 -89.32487487792969 1.5449999570846558  161.24462890625 -89.19999694824219 1.5449999570846558  161.2594451904297 -89.3875503540039 1.5449999570846558
T Nodo049  161.2611846923828 -89.52316284179688 1.5449999570846558  161.1363525390625 -89.6106185913086 1.5449999570846558  161.26498413085938 -89.64876556396484 1.5449999570846558
T Nodo049  161.26498413085938 -89.64876556396484 1.5449999570846558  161.13609313964844 -89.74822235107422 1.5449999570846558  161.27890014648438 -89.7569580078125 1.5449999570846558
T Nodo049  161.24462890625 -89.19999694824219 1.5449999570846558  161.13687133789062 -89.33650970458984 1.5449999570846558  161.2594451904297 -89.3875503540039 1.5449999570846558
T Nodo049  161.13661193847656 -89.47356414794922 1.5449999570846558  161.2611846923828 -89.52316284179688 1.5449999570846558  161.2594451904297 -89.3875503540039 1.5449999570846558
T Nodo049  160.94361877441406 -89.94139862060547 1.5449999570846558  160.97018432617188 -90.09041595458984 1.5449999570846558  161.0683135986328 -89.99337005615234 1.5449999570846558
T Nodo049  161.13609313964844 -89.74822235107422 1.5449999570846558  161.219970703125 -89.86270904541016 1.5449999570846558  161.27890014648438 -89.7569580078125 1.5449999570846558
T Nodo049  160.97018432617188 -90.09041595458984 1.5449999570846558  161.08522033691406 -90.15026092529297 1.5449999570846558  161.0683135986328 -89.99337005615234 1.5449999570846558
T Nodo049  160.17849731445312 -90.73561096191406 1.5449999570846558  160.17849731445312 -90.86369323730469 1.5449999570846558  160.25741577148438 -90.78458404541016 1.5449999570846558
T Nodo049  160.42572021484375 -91.03132629394531 1.5449999570846558  160.4259033203125 -90.92176818847656 1.5449999570846558  160.29644775390625 -90.92420196533203 1.5449999570846558
T Nodo049  160.425537109375 -91.14088439941406 1.5449999570846558  160.42572021484375 -91.03132629394531 1.5449999570846558  160.29664611816406 -91.04155731201172 1.5449999570846558
T Nodo049  161.17630004882812 -90.0588607788086 1.5449999570846558  161.219970703125 -89.86270904541016 1.5449999570846558  161.0683135986328 -89.99337005615234 1.5449999570846558
T Nodo049  160.99038696289062 -90.24543762207031 1.5449999570846558  160.97018432617188 -90.09041595458984 1.5449999570846558  160.87538146972656 -90.18538665771484 1.5449999570846558
T Nodo049  160.89649963378906 -90.33966827392578 1.5449999570846558  160.87538146972656 -90.18538665771484 1.5449999570846558  160.78097534179688 -90.28002166748047 1.5449999570846558
T Nodo049  160.80166625976562 -90.43484497070312 1.5449999570846558  160.78097534179688 -90.28002166748047 1.5449999570846558  160.6885528564453 -90.37237548828125 1.5449999570846558
T Nodo049  160.71058654785156 -90.52625274658203 1.5449999570846558  160.6885528564453 -90.37237548828125 1.5449999570846558  160.5972442626953 -90.46240234375 1.5449999570846558
T Nodo049  160.61575317382812 -90.62142944335938 1.5449999570846558  160.5972442626953 -90.46240234375 1.5449999570846558  160.5037384033203 -90.5489273071289 1.5449999570846558
T Nodo049  160.42608642578125 -90.81177520751953 1.5449999570846558  160.51998901367188 -90.71754455566406 1.5449999570846558  160.3496856689453 -90.72016143798828 1.5449999570846558
T Nodo049  160.29664611816406 -91.04155731201172 1.5449999570846558  160.42572021484375 -91.03132629394531 1.5449999570846558  160.29644775390625 -90.92420196533203 1.5449999570846558
T Nodo049  161.38369750976562 -89.82438659667969 1.5449999570846558  161.27890014648438 -89.7569580078125 1.5449999570846558  161.219970703125 -89.86270904541016 1.5449999570846558
T Nodo049  160.29481506347656 -90.59254455566406 1.5449999570846558  160.3496856689453 -90.72016143798828 1.5449999570846558  160.4106903076172 -90.61463928222656 1.5449999570846558
T Nodo049  160.17849731445312 -90.86369323730469 1.5449999570846558  160.29644775390625 -90.92420196533203 1.5449999570846558  160.25741577148438 -90.78458404541016 1.5449999570846558
T Nodo049  160.34800720214844 -90.8343734741211 1.5449999570846558  160.42608642578125 -90.81177520751953 1.5449999570846558  160.3496856689453 -90.72016143798828 1.5449999570846558
T Nodo049  160.17849731445312 -91.12140655517578 1.5449999570846558  160.425537109375 -91.14088439941406 1.5449999570846558  160.29664611816406 -91.04155731201172 1.5449999570846558
T Nodo049  160.19715881347656 -90.6905517578125 1.5449999570846558  160.17849731445312 -90.73561096191406 1.5449999570846558  160.25741577148438 -90.78458404541016 1.5449999570846558
T Nodo049  160.25741577148438 -90.78458404541016 1.5449999570846558  160.29644775390625 -90.92420196533203 1.5449999570846558  160.34800720214844 -90.8343734741211 1.5449999570846558
T Nodo049  160.51998901367188 -90.71754455566406 1.5449999570846558  160.5037384033203 -90.5489273071289 1.5449999570846558  160.4106903076172 -90.61463928222656 1.5449999570846558
T Nodo049  160.4259033203125 -90.92176818847656 1.5449999570846558  160.34800720214844 -90.8343734741211 1.5449999570846558  160.29644775390625 -90.92420196533203 1.5449999570846558
T Nodo049  160.19715881347656 -90.6905517578125 1.5449999570846558  160.25741577148438 -90.78458404541016 1.5449999570846558  160.3496856689453 -90.72016143798828 1.5449999570846558
T Nodo049  160.51998901367188 -90.71754455566406 1.5449999570846558  160.4106903076172 -90.61463928222656 1.5449999570846558  160.3496856689453 -90.72016143798828 1.5449999570846558
T Nodo049  161.36502075195312 -89.86945343017578 1.5449999570846558  161.38369750976562 -89.82438659667969 1.5449999570846558  161.219970703125 -89.86270904541016 1.5449999570846558
T Nodo049  160.17849731445312 -91.25 1.5099999904632568  160.15109252929688 -91.25 1.5099999904632568  160.17849731445312 -91.25 1.5449999570846558
T Nodo049  160.42469787597656 -91.25 1.5499999523162842  160.4510955810547 -91.25 1.5499999523162842  160.4510955810547 -91.25 1.5299999713897705
T Nodo049  160.4510955810547 -91.25 1.5299999713897705  160.4510955810547 -91.25 1.5099999904632568  160.42535400390625 -91.25 1.5099999904632568
T Nodo049  160.33648681640625 -91.25 1.5499999523162842  160.3625946044922 -91.25 1.5499999523162842  160.3466033935547 -91.25 1.5449999570846558
T Nodo049  160.3466033935547 -91.25 1.5449999570846558  160.3625946044922 -91.25 1.5499999523162842  160.3710479736328 -91.25 1.5449999570846558
T Nodo049  160.4510955810547 -91.25 1.5299999713897705  160.42535400390625 -91.25 1.5449999570846558  160.42469787597656 -91.25 1.5499999523162842
T Nodo049  160.31747436523438 -91.25 1.5449999570846558  160.29278564453125 -91.25 1.5449999570846558  160.3055877685547 -91.25 1.5499999523162842
T Nodo049  160.23403930664062 -91.25 1.5449999570846558  160.20738220214844 -91.25 1.5449999570846558  160.212890625 -91.25 1.5499999523162842
T Nodo049  160.15109252929688 -91.25 1.5499999523162842  160.17849731445312 -91.25 1.5449999570846558  160.15109252929688 -91.25 1.5099999904632568
T Nodo049  160.212890625 -91.25 1.5499999523162842  160.20738220214844 -91.25 1.5449999570846558  160.18289184570312 -91.25 1.5499999523162842
T Nodo049  160.15109252929688 -91.25 1.5499999523162842  160.18289184570312 -91.25 1.5499999523162842  160.17849731445312 -91.25 1.5449999570846558
T Nodo049  160.17849731445312 -91.25 1.5449999570846558  160.18289184570312 -91.25 1.5499999523162842  160.20738220214844 -91.25 1.5449999570846558
T Nodo049  160.212890625 -91.25 1.5499999523162842  160.2440948486328 -91.25 1.5499999523162842  160.23403930664062 -91.25 1.5449999570846558
T Nodo049  160.2440948486328 -91.25 1.5499999523162842  160.2755889892578 -91.25 1.5499999523162842  160.26365661621094 -91.25 1.5449999570846558
T Nodo049  160.2755889892578 -91.25 1.5499999523162842  160.3055877685547 -91.25 1.5499999523162842  160.29278564453125 -91.25 1.5449999570846558
T Nodo049  160.3055877685547 -91.25 1.5499999523162842  160.33648681640625 -91.25 1.5499999523162842  160.31747436523438 -91.25 1.5449999570846558
T Nodo049  160.3710479736328 -91.25 1.5449999570846558  160.3625946044922 -91.25 1.5499999523162842  160.3931884765625 -91.25 1.5499999523162842
T Nodo049  160.3931884765625 -91.25 1.5499999523162842  160.42469787597656 -91.25 1.5499999523162842  160.39845275878906 -91.25 1.5449999570846558
T Nodo049  160.26365661621094 -91.25 1.5449999570846558  160.2755889892578 -91.25 1.5499999523162842  160.29278564453125 -91.25 1.5449999570846558
T Nodo049  160.39845275878906 -91.25 1.5449999570846558  160.42469787597656 -91.25 1.5499999523162842  160.42535400390625 -91.25 1.5449999570846558
T Nodo049  160.3931884765625 -91.25 1.5499999523162842  160.39845275878906 -91.25 1.5449999570846558  160.3710479736328 -91.25 1.5449999570846558
T Nodo049  160.31747436523438 -91.25 1.5449999570846558  160.33648681640625 -91.25 1.5499999523162842  160.3466033935547 -91.25 1.5449999570846558
T Nodo049  160.2440948486328 -91.25 1.5499999523162842  160.26365661621094 -91.25 1.5449999570846558  160.23403930664062 -91.25 1.5449999570846558
T Nodo049  160.4510955810547 -91.25 1.5299999713897705  160.42535400390625 -91.25 1.5099999904632568  160.42535400390625 -91.25 1.5449999570846558
T Nodo049  160.04519653320312 -91.29376983642578 1.5499999523162842  160.0010986328125 -91.4000015258789 1.5499999523162842  160.1245574951172 -91.35429382324219 1.5499999523162842
T Nodo049  160.04519653320312 -91.29376983642578 1.5499999523162842  160.1245574951172 -91.35429382324219 1.5499999523162842  160.15109252929688 -91.25 1.5499999523162842
T Nodo049  160.2965850830078 -91.25 1.5499999523162842  160.15109252929688 -91.25 1.5499999523162842  160.22760009765625 -91.34009552001953 1.5499999523162842
T Nodo049  160.15109252929688 -91.25 1.5499999523162842  160.1245574951172 -91.35429382324219 1.5499999523162842  160.22760009765625 -91.34009552001953 1.5499999523162842
T Nodo049  160.4510955810547 -91.25 1.5499999523162842  160.2965850830078 -91.25 1.5499999523162842  160.3511199951172 -91.36581420898438 1.5499999523162842
T Nodo049  160.2965850830078 -91.25 1.5499999523162842  160.22760009765625 -91.34009552001953 1.5499999523162842  160.3511199951172 -91.36581420898438 1.5499999523162842
T Nodo049  160.55715942382812 -91.29393768310547 1.5499999523162842  160.4510955810547 -91.25 1.5499999523162842  160.478271484375 -91.3627700805664 1.5499999523162842
T Nodo049  160.60108947753906 -91.4000015258789 1.5499999523162842  160.55715942382812 -91.29393768310547 1.5499999523162842  160.478271484375 -91.3627700805664 1.5499999523162842
T Nodo049  160.4510955810547 -91.25 1.5499999523162842  160.3511199951172 -91.36581420898438 1.5499999523162842  160.478271484375 -91.3627700805664 1.5499999523162842
T Nodo049  160.60108947753906 -92.50385284423828 1.5499999523162842  160.60108947753906 -92.02040100097656 1.5499999523162842  160.0010986328125 -92.17054748535156 1.5499999523162842
T Nodo049  160.60108947753906 -93.05000305175781 1.5499999523162842  160.60108947753906 -92.85530090332031 1.5499999523162842  160.39195251464844 -92.9444351196289 1.5499999523162842
T Nodo049  160.55699157714844 -93.15623474121094 1.5499999523162842  160.60108947753906 -93.05000305175781 1.5499999523162842  160.4259490966797 -93.0936050415039 1.5499999523162842
T Nodo049  160.4510955810547 -93.19999694824219 1.5499999523162842  160.55699157714844 -93.15623474121094 1.5499999523162842  160.4259490966797 -93.0936050415039 1.5499999523162842
T Nodo049  160.60108947753906 -93.05000305175781 1.5499999523162842  160.39195251464844 -92.9444351196289 1.5499999523162842  160.4259490966797 -93.0936050415039 1.5499999523162842
T Nodo049  160.28939819335938 -93.19999694824219 1.5499999523162842  160.4510955810547 -93.19999694824219 1.5499999523162842  160.4259490966797 -93.0936050415039 1.5499999523162842
T Nodo049  160.15109252929688 -93.19999694824219 1.5499999523162842  160.28939819335938 -93.19999694824219 1.5499999523162842  160.2555694580078 -93.0770263671875 1.5499999523162842
T Nodo049  160.04486083984375 -93.15589904785156 1.5499999523162842  160.15109252929688 -93.19999694824219 1.5499999523162842  160.12474060058594 -93.08487701416016 1.5499999523162842
T Nodo049  160.0010986328125 -93.05000305175781 1.5499999523162842  160.04486083984375 -93.15589904785156 1.5499999523162842  160.12474060058594 -93.08487701416016 1.5499999523162842
T Nodo049  160.15109252929688 -93.19999694824219 1.5499999523162842  160.2555694580078 -93.0770263671875 1.5499999523162842  160.12474060058594 -93.08487701416016 1.5499999523162842
T Nodo049  160.60108947753906 -91.61284637451172 1.5499999523162842  160.60108947753906 -91.4000015258789 1.5499999523162842  160.43389892578125 -91.49881744384766 1.5499999523162842
T Nodo049  160.60108947753906 -92.02040100097656 1.5499999523162842  160.60108947753906 -91.61284637451172 1.5499999523162842  160.3231658935547 -91.73503112792969 1.5499999523162842
T Nodo049  160.28939819335938 -93.19999694824219 1.5499999523162842  160.4259490966797 -93.0936050415039 1.5499999523162842  160.2555694580078 -93.0770263671875 1.5499999523162842
T Nodo049  160.60108947753906 -92.85530090332031 1.5499999523162842  160.60108947753906 -92.50385284423828 1.5499999523162842  160.30728149414062 -92.7164077758789 1.5499999523162842
T Nodo049  160.0010986328125 -92.81900024414062 1.5499999523162842  160.0010986328125 -93.05000305175781 1.5499999523162842  160.169677734375 -92.94465637207031 1.5499999523162842
T Nodo049  160.0010986328125 -92.17054748535156 1.5499999523162842  160.0010986328125 -92.81900024414062 1.5499999523162842  160.30728149414062 -92.7164077758789 1.5499999523162842
T Nodo049  160.0010986328125 -91.4000015258789 1.5499999523162842  160.0010986328125 -91.66400146484375 1.5499999523162842  160.20423889160156 -91.48391723632812 1.5499999523162842
T Nodo049  160.60108947753906 -92.50385284423828 1.5499999523162842  160.0010986328125 -92.17054748535156 1.5499999523162842  160.30728149414062 -92.7164077758789 1.5499999523162842
T Nodo049  160.30728149414062 -92.7164077758789 1.5499999523162842  160.0010986328125 -92.81900024414062 1.5499999523162842  160.169677734375 -92.94465637207031 1.5499999523162842
T Nodo049  160.20423889160156 -91.48391723632812 1.5499999523162842  160.0010986328125 -91.66400146484375 1.5499999523162842  160.3231658935547 -91.73503112792969 1.5499999523162842
T Nodo049  160.39195251464844 -92.9444351196289 1.5499999523162842  160.60108947753906 -92.85530090332031 1.5499999523162842  160.30728149414062 -92.7164077758789 1.5499999523162842
T Nodo049  160.2555694580078 -93.0770263671875 1.5499999523162842  160.4259490966797 -93.0936050415039 1.5499999523162842  160.39195251464844 -92.9444351196289 1.5499999523162842
T Nodo049  160.60108947753906 -91.61284637451172 1.5499999523162842  160.43389892578125 -91.49881744384766 1.5499999523162842  160.3231658935547 -91.73503112792969 1.5499999523162842
T Nodo049  160.0010986328125 -91.4000015258789 1.5499999523162842  160.20423889160156 -91.48391723632812 1.5499999523162842  160.1245574951172 -91.35429382324219 1.5499999523162842
T Nodo049  160.0010986328125 -91.66400146484375 1.5499999523162842  160.0010986328125 -92.17054748535156 1.5499999523162842  160.3231658935547 -91.73503112792969 1.5499999523162842
T Nodo049  160.3231658935547 -91.73503112792969 1.5499999523162842  160.0010986328125 -92.17054748535156 1.5499999523162842  160.60108947753906 -92.02040100097656 1.5499999523162842
T Nodo049  160.1245574951172 -91.35429382324219 1.5499999523162842  160.20423889160156 -91.48391723632812 1.5499999523162842  160.22760009765625 -91.34009552001953 1.5499999523162842
T Nodo049  160.60108947753906 -91.4000015258789 1.5499999523162842  160.478271484375 -91.3627700805664 1.5499999523162842  160.43389892578125 -91.49881744384766 1.5499999523162842
T Nodo049  160.3511199951172 -91.36581420898438 1.5499999523162842  160.22760009765625 -91.34009552001953 1.5499999523162842  160.20423889160156 -91.48391723632812 1.5499999523162842
T Nodo049  160.478271484375 -91.3627700805664 1.5499999523162842  160.3511199951172 -91.36581420898438 1.5499999523162842  160.43389892578125 -91.49881744384766 1.5499999523162842
T Nodo049  160.43389892578125 -91.49881744384766 1.5499999523162842  160.3511199951172 -91.36581420898438 1.5499999523162842  160.20423889160156 -91.48391723632812 1.5499999523162842
T Nodo049  160.30728149414062 -92.7164077758789 1.5499999523162842  160.169677734375 -92.94465637207031 1.5499999523162842  160.39195251464844 -92.9444351196289 1.5499999523162842
T Nodo049  160.20423889160156 -91.48391723632812 1.5499999523162842  160.3231658935547 -91.73503112792969 1.5499999523162842  160.43389892578125 -91.49881744384766 1.5499999523162842
T Nodo049  160.169677734375 -92.94465637207031 1.5499999523162842  160.0010986328125 -93.05000305175781 1.5499999523162842  160.12474060058594 -93.08487701416016 1.5499999523162842
T Nodo049  160.12474060058594 -93.08487701416016 1.5499999523162842  160.2555694580078 -93.0770263671875 1.5499999523162842  160.169677734375 -92.94465637207031 1.5499999523162842
T Nodo049  160.2555694580078 -93.0770263671875 1.5499999523162842  160.39195251464844 -92.9444351196289 1.5499999523162842  160.169677734375 -92.94465637207031 1.5499999523162842


