0 conductor definition file for the following objects
* - A_Nodo_Tierra
* created using FreeCAD's ElectroMagnetic workbench
* see http://www.freecad.org and http://www.fastfieldsolvers.com

T Nodo003  179.4 -87.4125 0.0  179.4 -87.4125 0.0  179.4 -87.4125 1.51
Q Nodo003  179.75 -87.6125 1.51  179.75 -87.6125 1.55  176.45 -87.6125 1.55  176.45 -87.6125 1.51
Q Nodo003  175.95 -86.812502 1.545  176.45 -86.81250176744 1.545  176.45 -86.81250176744 1.51  175.95 -86.812502 1.51
Q Nodo003  176.45 -86.31249988372113 1.545  175.950001 -86.3125 1.545  175.950001 -86.3125 1.51  176.45 -86.31249988372 1.51
Q Nodo003  176.45 -85.5125 1.51  176.45 -85.5125 1.55  179.75 -85.5125 1.55  179.75 -85.5125 1.51
Q Nodo003  176.45 -87.6125 1.55  176.45 -85.5125 1.55  179.75 -85.5125 1.55  179.75 -87.6125 1.55
Q Nodo003  180.25 -86.312499 1.545  179.75 -86.31249911627 1.545  179.75 -86.31249911627 1.51  180.25 -86.312499 1.51
Q Nodo003  179.75 -86.81250023255731 1.545  180.249998 -86.8125 1.545  180.249998 -86.8125 1.51  179.75 -86.81250023255 1.51
Q Nodo003  125.2005 -122.2005 0.0  125.2005 -122.2005 -0.035  125.2005 -75.5995 -0.035  125.2005 -75.5995 0.0
Q Nodo003  125.2995 -122.2995 0.0  125.2005 -122.2005 0.0  125.2004999999987 -122.2005 -0.035  125.2995 -122.2995 -0.035
Q Nodo003  181.19606 -122.2995 0.0  181.19606 -122.2995 -0.035  125.2995 -122.2995 -0.035  125.2995 -122.2995 0.0
Q Nodo003  181.29506 -122.2005 0.0  181.19606 -122.2995 0.0  181.19606 -122.29949999999131 -0.035  181.29506 -122.2005 -0.035
Q Nodo003  181.29506 -75.5995 0.0  181.29506 -75.5995 -0.035  181.29506 -122.2005 -0.035  181.29506 -122.2005 0.0
Q Nodo003  181.19606 -75.5005 0.0  181.29506 -75.5995 0.0  181.29505999999128 -75.5995 -0.035  181.19606 -75.5005 -0.035
Q Nodo003  179.32253 -75.503235 0.0  179.32253 -75.503235 -0.035  181.19606 -75.5005 -0.035  181.19606 -75.5005 0.0
Q Nodo003  179.26123 -75.651227 0.0  179.32253 -75.503235 0.0  179.32252999999895 -75.50323499999557 -0.035  179.26123 -75.651227 -0.035
Q Nodo003  179.307755 -75.690964 0.0  179.307755 -75.690964 -0.035  179.26123 -75.651227 -0.035  179.26123 -75.651227 0.0
Q Nodo003  180.05 -76.596586 0.0  180.05 -76.596586 -0.035  179.307755 -75.690964 -0.035  179.30775500000107 -75.69096399999643 0.0
Q Nodo003  180.05 -76.749999 0.0  180.05 -76.749999 -0.035  180.05 -76.596586 -0.035  180.05 -76.596586 0.0
Q Nodo003  180.05 -76.749999 -0.035  179.55 -76.74999966666 -0.035  179.55 -76.74999966666 0.0  180.05 -76.749999 0.0
Q Nodo003  179.55 -77.25 -0.035  180.049999 -77.25 -0.035  180.049999 -77.25 0.0  179.55 -77.25 0.0
Q Nodo003  180.05 -77.403413 0.0  180.05 -77.403413 -0.035  180.049999 -77.25 -0.035  180.049999 -77.25 0.0
Q Nodo003  179.306276 -78.309648 0.0  179.306276 -78.309648 -0.035  180.05 -77.403413 -0.035  180.04999999999177 -77.40341299999919 0.0
Q Nodo003  179.25 -78.320841 0.0  179.25 -78.320841 -0.035  179.306276 -78.309648 -0.035  179.306276 -78.30964799999998 0.0
Q Nodo003  179.25 -78.320841 -0.035  179.25 -77.78989822138 -0.035  179.25 -77.78989822138 0.0  179.25 -78.320841 0.0
Q Nodo003  178.75 -77.78989822138 -0.035  178.75 -78.320842 -0.035  178.75 -78.320842 0.0  178.75 -77.78989822138 0.0
Q Nodo003  178.693723 -78.309648 0.0  178.693723 -78.309648 -0.035  178.75 -78.320842 -0.035  178.75 -78.32084200000003 0.0
Q Nodo003  177.95 -77.403418 0.0  177.95 -77.403418 -0.035  178.693723 -78.309648 -0.035  178.69372300000185 -78.30964799999387 0.0
Q Nodo003  177.95 -77.250001 0.0  177.95 -77.250001 -0.035  177.95 -77.403418 -0.035  177.95 -77.403418 0.0
Q Nodo003  177.95 -77.250001 -0.035  178.45 -77.25000033333 -0.035  178.45 -77.25000033333 0.0  177.95 -77.250001 0.0
Q Nodo003  178.45 -76.75 -0.035  177.950001 -76.75 -0.035  177.950001 -76.75 0.0  178.45 -76.75 0.0
Q Nodo003  177.95 -76.596581 0.0  177.95 -76.596581 -0.035  177.950001 -76.75 -0.035  177.950001 -76.75 0.0
Q Nodo003  178.502625 -75.769508 0.0  178.502625 -75.769508 -0.035  177.95 -76.596581 -0.035  177.94999999999692 -76.5965809999997 0.0
Q Nodo003  178.71255 -75.679593 0.0  178.71255 -75.679593 -0.035  178.502625 -75.769508 -0.035  178.50262500000002 -75.76950800000004 0.0
Q Nodo003  178.654359 -75.5005 0.0  178.71255 -75.679593 0.0  178.71254999999869 -75.6795929999982 -0.035  178.654359 -75.5005 -0.035
Q Nodo003  170.68253 -75.503235 0.0  170.68253 -75.503235 -0.035  178.654359 -75.5005 -0.035  178.654359 -75.5005 0.0
Q Nodo003  170.62123 -75.651227 0.0  170.68253 -75.503235 0.0  170.68252999999893 -75.50323499999556 -0.035  170.62123 -75.651227 -0.035
Q Nodo003  170.667755 -75.690964 0.0  170.667755 -75.690964 -0.035  170.62123 -75.651227 -0.035  170.62122999999997 -75.65122700000002 0.0
Q Nodo003  171.41 -76.596586 0.0  171.41 -76.596586 -0.035  170.667755 -75.690964 -0.035  170.66775500000108 -75.69096399999643 0.0
Q Nodo003  171.41 -76.749999 0.0  171.41 -76.749999 -0.035  171.41 -76.596586 -0.035  171.41 -76.596586 0.0
Q Nodo003  171.41 -76.749999 -0.035  170.91 -76.74999966666 -0.035  170.91 -76.74999966666 0.0  171.41 -76.749999 0.0
Q Nodo003  170.91 -77.25 -0.035  171.409999 -77.25 -0.035  171.409999 -77.25 0.0  170.91 -77.25 0.0
Q Nodo003  171.41 -77.403413 0.0  171.41 -77.403413 -0.035  171.409999 -77.25 -0.035  171.409999 -77.25 0.0
Q Nodo003  170.666276 -78.309648 0.0  170.666276 -78.309648 -0.035  171.41 -77.403413 -0.035  171.40999999999178 -77.40341299999919 0.0
Q Nodo003  170.61 -78.320841 0.0  170.61 -78.320841 -0.035  170.666276 -78.309648 -0.035  170.666276 -78.30964799999998 0.0
Q Nodo003  170.61 -78.320841 -0.035  170.61 -77.78989822138 -0.035  170.61 -77.78989822138 0.0  170.61 -78.320841 0.0
Q Nodo003  170.11 -77.7898982214 -0.035  170.11 -78.320842 -0.035  170.11 -78.320842 0.0  170.11 -77.78989822138 0.0
Q Nodo003  170.053723 -78.309648 0.0  170.053723 -78.309648 -0.035  170.11 -78.320842 -0.035  170.11 -78.32084199999997 0.0
Q Nodo003  169.31 -77.403418 0.0  169.31 -77.403418 -0.035  170.053723 -78.309648 -0.035  170.05372300000184 -78.30964799999387 0.0
Q Nodo003  169.31 -77.250001 0.0  169.31 -77.250001 -0.035  169.31 -77.403418 -0.035  169.31 -77.403418 0.0
Q Nodo003  169.31 -77.250001 -0.035  169.81 -77.25000033333 -0.035  169.81 -77.25000033333 0.0  169.31 -77.250001 0.0
Q Nodo003  169.81 -76.75 -0.035  169.310001 -76.75 -0.035  169.310001 -76.75 0.0  169.81 -76.75 0.0
Q Nodo003  169.31 -76.596581 0.0  169.31 -76.596581 -0.035  169.310001 -76.75 -0.035  169.310001 -76.75 0.0
Q Nodo003  169.862625 -75.769508 0.0  169.862625 -75.769508 -0.035  169.31 -76.596581 -0.035  169.30999999999693 -76.5965809999997 0.0
Q Nodo003  170.07255 -75.679593 0.0  170.07255 -75.679593 -0.035  169.862625 -75.769508 -0.035  169.86262500000004 -75.76950800000004 0.0
Q Nodo003  170.014359 -75.5005 0.0  170.07255 -75.679593 0.0  170.0725499999987 -75.67959299999819 -0.035  170.014359 -75.5005 -0.035
Q Nodo003  125.2995 -75.5005 0.0  125.2995 -75.5005 -0.035  170.014359 -75.5005 -0.035  170.014359 -75.5005 0.0
Q Nodo003  125.2005 -75.5995 0.0  125.2995 -75.5005 0.0  125.2995 -75.50049999999872 -0.035  125.2005 -75.5995 -0.035
Q Nodo003  177.6745 -117.438163 0.0  177.6745 -117.438163 -0.035  179.3835 -117.438161 -0.035  179.38349999998928 -117.43816099999894 0.0
Q Nodo003  177.6745 -115.961836 0.0  177.6745 -115.961836 -0.035  177.6745 -117.438163 -0.035  177.6745 -117.438163 0.0
Q Nodo003  179.3835 -117.438161 0.0  179.3835 -117.438161 -0.035  179.3835 -115.961839 -0.035  179.3835 -115.961839 0.0
Q Nodo003  179.3835 -115.961839 0.0  179.3835 -115.961839 -0.035  177.6745 -115.961836 -0.035  177.67449999999533 -115.96183599999955 0.0
T Nodo003  176.033372 -118.2 0.0  176.033372 -118.2 0.0  176.033372 -118.2 -0.035
Q Nodo003  171.0745 -117.438163 0.0  171.0745 -117.438163 -0.035  172.7835 -117.438161 -0.035  172.7834999999893 -117.43816099999894 0.0
Q Nodo003  171.0745 -115.961836 0.0  171.0745 -115.961836 -0.035  171.0745 -117.438163 -0.035  171.0745 -117.438163 0.0
Q Nodo003  172.7835 -117.438161 0.0  172.7835 -117.438161 -0.035  172.783499 -115.961836 -0.035  172.783499 -115.961836 0.0
Q Nodo003  172.783499 -115.961836 0.0  172.783499 -115.961836 -0.035  171.0745 -115.961836 -0.035  171.0744999999928 -115.9618359999993 0.0
T Nodo003  176.033372 -111.2 0.0  176.033372 -111.2 0.0  176.033372 -111.2 -0.035
T Nodo003  170.77 -114.13 0.0  170.77 -114.13 0.0  170.77 -114.13 1.51
T Nodo003  161.033722 -120.082554 0.0  161.033722 -120.082554 0.0  161.033722 -120.082554 1.51
T Nodo003  157.1 -119.05 0.0  157.1 -119.05 0.0  157.1 -119.05 1.51
T Nodo003  162.963868 -114.247554 0.0  162.963868 -114.247554 0.0  162.963868 -114.247554 1.51
Q Nodo003  165.845505 -105.653319 0.0  165.845505 -105.653319 -0.035  165.873281 -105.707834 -0.035  165.873281 -105.707834 0.0
Q Nodo003  165.799496 -105.607309 0.0  165.799496 -105.607309 -0.035  165.845505 -105.653319 -0.035  165.84550500000003 -105.65331899999998 0.0
Q Nodo003  165.873281 -105.707834 0.0  165.873281 -105.707834 -0.035  165.8745 -107.724165 -0.035  165.8745 -107.724165 0.0
Q Nodo003  166.6005 -105.607314 0.0  166.6005 -105.607314 -0.035  165.799496 -105.607309 -0.035  165.79949600001365 -105.60730899998953 0.0
Q Nodo003  165.8745 -107.724165 0.0  165.8745 -107.724165 -0.035  165.855593 -107.782356 -0.035  165.85559300000003 -107.782356 0.0
Q Nodo003  166.544407 -105.66513 0.0  166.544407 -105.66513 -0.035  166.6005 -105.607314 -0.035  166.6005 -105.60731399999999 0.0
Q Nodo003  165.855593 -107.782356 0.0  165.855593 -107.782356 -0.035  159.269169 -114.370504 -0.035  159.26916899999944 -114.37050399999943 0.0
Q Nodo003  166.5255 -105.723321 0.0  166.5255 -105.723321 -0.035  166.544407 -105.66513 -0.035  166.54440699999998 -105.66513 0.0
Q Nodo003  159.269169 -114.370504 0.0  159.269169 -114.370504 -0.035  159.214652 -114.398281 -0.035  159.214652 -114.398281 0.0
Q Nodo003  166.5255 -107.942853 0.0  166.5255 -107.942853 -0.035  166.5255 -105.723321 -0.035  166.5255 -105.723321 0.0
Q Nodo003  159.214652 -114.398281 0.0  159.214652 -114.398281 -0.035  159.134108 -114.3995 -0.035  159.134108 -114.3995 0.0
Q Nodo003  166.503318 -108.025639 0.0  166.503318 -108.025639 -0.035  166.5255 -107.942853 -0.035  166.52550000000002 -107.942853 0.0
Q Nodo003  159.134108 -114.3995 0.0  159.134108 -114.3995 -0.035  159.7005 -114.965892 -0.035  159.7004999999842 -114.96589199999791 0.0
Q Nodo003  166.460465 -108.099862 0.0  166.460465 -108.099862 -0.035  166.503318 -108.025639 -0.035  166.50331800000004 -108.02563900000001 0.0
Q Nodo003  159.7005 -114.965892 0.0  159.7005 -114.965892 -0.035  159.7005 -114.900834 -0.035  159.7005 -114.900834 0.0
Q Nodo003  159.719407 -114.842643 0.0  159.719407 -114.842643 -0.035  166.460465 -108.099862 -0.035  166.46046499999957 -108.09986199999958 0.0
Q Nodo003  159.7005 -114.900834 0.0  159.7005 -114.900834 -0.035  159.719407 -114.842643 -0.035  159.719407 -114.842643 0.0
T Nodo003  157.1 -114.05 0.0  157.1 -114.05 0.0  157.1 -114.05 1.51
Q Nodo003  153.193191 -110.933609 0.0  153.193191 -110.933609 -0.035  152.93411 -111.9005 -0.035  152.9341100000109 -111.9004999999173 0.0
Q Nodo003  153.307309 -110.999496 0.0  153.307309 -110.999496 -0.035  153.193191 -110.933609 -0.035  153.19319100000004 -110.93360899999995 0.0
Q Nodo003  152.93411 -111.9005 0.0  152.93411 -111.9005 -0.035  153.034521 -111.9005 -0.035  153.034521 -111.9005 0.0
Q Nodo003  153.400503 -111.09269 0.0  153.400503 -111.09269 -0.035  153.307309 -110.999496 -0.035  153.30730900000006 -110.99949599999994 0.0
Q Nodo003  153.034521 -111.9005 0.0  153.034521 -111.9005 -0.035  153.092712 -111.919407 -0.035  153.092712 -111.91940699999999 0.0
Q Nodo003  153.501719 -111.450008 0.0  153.501719 -111.450008 -0.035  153.400503 -111.09269 -0.035  153.4005030000352 -111.09268999997279 0.0
Q Nodo003  153.092712 -111.919407 0.0  153.092712 -111.919407 -0.035  158.720504 -117.545475 -0.035  158.72050399999807 -117.54547500000194 0.0
Q Nodo003  153.529496 -111.504525 0.0  153.529496 -111.504525 -0.035  153.501719 -111.450008 -0.035  153.50171899999998 -111.45000800000001 0.0
Q Nodo003  158.720504 -117.545475 0.0  158.720504 -117.545475 -0.035  158.748281 -117.599992 -0.035  158.74828100000002 -117.59999199999999 0.0
Q Nodo003  159.157288 -117.130593 0.0  159.157288 -117.130593 -0.035  153.529496 -111.504525 -0.035  153.52949600000193 -111.50452499999807 0.0
Q Nodo003  158.748281 -117.599992 0.0  158.748281 -117.599992 -0.035  158.849496 -117.957309 -0.035  158.849496000026 -117.95730899997989 0.0
Q Nodo003  159.215479 -117.1495 0.0  159.215479 -117.1495 -0.035  159.157288 -117.130593 -0.035  159.157288 -117.13059300000002 0.0
Q Nodo003  158.849496 -117.957309 0.0  158.849496 -117.957309 -0.035  158.942686 -118.0505 -0.035  158.942686 -118.0505 0.0
Q Nodo003  159.315892 -117.1495 0.0  159.315892 -117.1495 -0.035  159.215479 -117.1495 -0.035  159.215479 -117.1495 0.0
Q Nodo003  158.942686 -118.0505 0.0  158.942686 -118.0505 -0.035  159.315892 -117.1495 -0.035  159.31589200000315 -117.14949999997611 0.0
Q Nodo003  177.2245 -109.438163 0.0  177.2245 -109.438163 -0.035  178.9335 -109.438161 -0.035  178.9334999999893 -109.43816099999894 0.0
Q Nodo003  177.2245 -107.961836 0.0  177.2245 -107.961836 -0.035  177.2245 -109.438163 -0.035  177.2245 -109.438163 0.0
Q Nodo003  178.9335 -109.438161 0.0  178.9335 -109.438161 -0.035  178.9335 -107.961839 -0.035  178.9335 -107.961839 0.0
Q Nodo003  178.9335 -107.961839 0.0  178.9335 -107.961839 -0.035  177.2245 -107.961836 -0.035  177.22449999999534 -107.96183599999955 0.0
Q Nodo003  175.967161 -108.7545 0.0  175.967161 -108.7545 -0.035  175.967161 -107.0455 -0.035  175.96716100000003 -107.04549999999968 0.0
Q Nodo003  174.49084 -108.7545 0.0  174.49084 -108.7545 -0.035  175.967161 -108.7545 -0.035  175.967161 -108.7545 0.0
Q Nodo003  175.967161 -107.0455 0.0  175.967161 -107.0455 -0.035  174.490836 -107.0455 -0.035  174.490836 -107.0455 0.0
Q Nodo003  174.490836 -107.0455 0.0  174.490836 -107.0455 -0.035  174.49084 -108.7545 -0.035  174.49084000000138 -108.75449999998582 0.0
T Nodo003  178.9 -106.51 0.0  178.9 -106.51 0.0  178.9 -106.51 1.51
Q Nodo003  171.5245 -109.438163 0.0  171.5245 -109.438163 -0.035  173.2335 -109.438161 -0.035  173.2334999999893 -109.43816099999894 0.0
Q Nodo003  171.5245 -107.961836 0.0  171.5245 -107.961836 -0.035  171.5245 -109.438163 -0.035  171.5245 -109.438163 0.0
Q Nodo003  173.2335 -109.438161 0.0  173.2335 -109.438161 -0.035  173.2335 -107.961839 -0.035  173.2335 -107.961839 0.0
Q Nodo003  173.2335 -107.961839 0.0  173.2335 -107.961839 -0.035  171.5245 -107.961836 -0.035  171.52449999999533 -107.96183599999955 0.0
Q Nodo003  167.470505 -105.678319 0.0  167.470505 -105.678319 -0.035  167.498281 -105.732834 -0.035  167.498281 -105.732834 0.0
Q Nodo003  167.399496 -105.607309 0.0  167.399496 -105.607309 -0.035  167.470505 -105.678319 -0.035  167.470505 -105.678319 0.0
Q Nodo003  167.498281 -105.732834 0.0  167.498281 -105.732834 -0.035  167.4995 -113.751679 -0.035  167.4995 -113.751679 0.0
Q Nodo003  168.3005 -105.234108 0.0  168.3005 -105.234108 -0.035  167.399496 -105.607309 -0.035  167.3994960000084 -105.60730899999355 0.0
Q Nodo003  167.4995 -113.751679 0.0  167.4995 -113.751679 -0.035  167.480593 -113.80987 -0.035  167.48059300000003 -113.80987 0.0
Q Nodo003  168.3005 -105.365892 0.0  168.3005 -105.365892 -0.035  168.3005 -105.234108 -0.035  168.3005 -105.234108 0.0
Q Nodo003  167.480593 -113.80987 0.0  167.480593 -113.80987 -0.035  167.2995 -114.134108 -0.035  167.29949999998064 -114.13410799999752 0.0
Q Nodo003  168.119407 -105.69013 0.0  168.119407 -105.69013 -0.035  168.3005 -105.365892 -0.035  168.30049999999642 -105.36589199999955 0.0
Q Nodo003  167.2995 -114.134108 0.0  167.2995 -114.134108 -0.035  167.2995 -114.265892 -0.035  167.2995 -114.265892 0.0
Q Nodo003  168.1005 -105.748321 0.0  168.1005 -105.748321 -0.035  168.119407 -105.69013 -0.035  168.119407 -105.69013 0.0
Q Nodo003  167.2995 -114.265892 0.0  167.2995 -114.265892 -0.035  168.200503 -113.89269 -0.035  168.20050300001674 -113.89268999998714 0.0
Q Nodo003  168.101719 -113.767166 0.0  168.101719 -113.767166 -0.035  168.1005 -105.748321 -0.035  168.1005 -105.748321 0.0
Q Nodo003  168.200503 -113.89269 0.0  168.200503 -113.89269 -0.035  168.129494 -113.82168 -0.035  168.129494 -113.82168 0.0
Q Nodo003  168.129494 -113.82168 0.0  168.129494 -113.82168 -0.035  168.101719 -113.767166 -0.035  168.101719 -113.767166 0.0
T Nodo003  171.3 -105.65 0.0  171.3 -105.65 0.0  171.3 -105.65 1.51
T Nodo003  176.6 -103.95 0.0  176.6 -103.95 0.0  176.6 -103.95 1.51
T Nodo003  173.5 -103.25 0.0  173.5 -103.25 0.0  173.5 -103.25 1.51
Q Nodo003  150.670505 -102.767227 0.0  150.670505 -102.767227 -0.035  150.698281 -102.821742 -0.035  150.69828100000004 -102.82174199999999 0.0
Q Nodo003  150.610588 -102.707309 0.0  150.610588 -102.707309 -0.035  150.670505 -102.767227 -0.035  150.670505 -102.767227 0.0
Q Nodo003  150.698281 -102.821742 0.0  150.698281 -102.821742 -0.035  150.6995 -103.639564 -0.035  150.6995 -103.639564 0.0
Q Nodo003  151.411592 -102.707314 0.0  151.411592 -102.707314 -0.035  150.610588 -102.707309 -0.035  150.61058800001365 -102.70730899998954 0.0
Q Nodo003  150.6995 -103.639564 0.0  150.6995 -103.639564 -0.035  150.719978 -103.715988 -0.035  150.71997800000003 -103.715988 0.0
Q Nodo003  151.319407 -102.801222 0.0  151.319407 -102.801222 -0.035  151.411592 -102.707314 -0.035  151.41159199999998 -102.70731399999998 0.0
Q Nodo003  150.719978 -103.715988 0.0  150.719978 -103.715988 -0.035  150.75954 -103.784511 -0.035  150.75954 -103.784511 0.0
Q Nodo003  151.3005 -102.859413 0.0  151.3005 -102.859413 -0.035  151.319407 -102.801222 -0.035  151.31940699999998 -102.801222 0.0
Q Nodo003  150.75954 -103.784511 0.0  150.75954 -103.784511 -0.035  155.370505 -108.395476 -0.035  155.370505 -108.39547600000002 0.0
Q Nodo003  151.301719 -103.450008 0.0  151.301719 -103.450008 -0.035  151.3005 -102.859413 -0.035  151.3005 -102.859413 0.0
Q Nodo003  155.370505 -108.395476 0.0  155.370505 -108.395476 -0.035  155.398281 -108.449991 -0.035  155.398281 -108.449991 0.0
Q Nodo003  151.329496 -103.504525 0.0  151.329496 -103.504525 -0.035  151.301719 -103.450008 -0.035  151.301719 -103.450008 0.0
Q Nodo003  155.398281 -108.449991 0.0  155.398281 -108.449991 -0.035  155.499496 -108.807309 -0.035  155.49949600003845 -108.80730899997027 0.0
Q Nodo003  155.807288 -107.980593 0.0  155.807288 -107.980593 -0.035  151.329496 -103.504525 -0.035  151.32949599999887 -103.50452500000115 0.0
Q Nodo003  155.499496 -108.807309 0.0  155.499496 -108.807309 -0.035  155.592686 -108.9005 -0.035  155.592686 -108.9005 0.0
Q Nodo003  155.865479 -107.9995 0.0  155.865479 -107.9995 -0.035  155.807288 -107.980593 -0.035  155.807288 -107.98059300000001 0.0
Q Nodo003  155.592686 -108.9005 0.0  155.592686 -108.9005 -0.035  155.706808 -108.96639 -0.035  155.70680799999997 -108.96639000000003 0.0
Q Nodo003  155.965892 -107.9995 0.0  155.965892 -107.9995 -0.035  155.865479 -107.9995 -0.035  155.865479 -107.9995 0.0
Q Nodo003  155.706808 -108.96639 0.0  155.706808 -108.96639 -0.035  155.834108 -109.0005 -0.035  155.834108 -109.00050000000003 0.0
Q Nodo003  156.4005 -108.434109 0.0  156.4005 -108.434109 -0.035  155.965892 -107.9995 -0.035  155.96589200000747 -107.99949999994331 0.0
Q Nodo003  155.834108 -109.0005 0.0  155.834108 -109.0005 -0.035  155.899165 -109.0005 -0.035  155.899165 -109.0005 0.0
Q Nodo003  156.401719 -108.514652 0.0  156.401719 -108.514652 -0.035  156.4005 -108.434109 -0.035  156.4005 -108.434109 0.0
Q Nodo003  155.899165 -109.0005 0.0  155.899165 -109.0005 -0.035  155.957356 -109.019407 -0.035  155.957356 -109.01940699999999 0.0
Q Nodo003  156.429496 -108.569169 0.0  156.429496 -108.569169 -0.035  156.401719 -108.514652 -0.035  156.40171899999999 -108.51465200000001 0.0
Q Nodo003  155.957356 -109.019407 0.0  155.957356 -109.019407 -0.035  157.300138 -110.360465 -0.035  157.30013799999975 -110.36046500000026 0.0
Q Nodo003  157.617643 -109.755593 0.0  157.617643 -109.755593 -0.035  156.429496 -108.569169 -0.035  156.4294960000001 -108.5691689999999 0.0
Q Nodo003  157.300138 -110.360465 0.0  157.300138 -110.360465 -0.035  157.374361 -110.403318 -0.035  157.374361 -110.40331800000001 0.0
Q Nodo003  157.675834 -109.7745 0.0  157.675834 -109.7745 -0.035  157.617643 -109.755593 -0.035  157.617643 -109.755593 0.0
Q Nodo003  157.374361 -110.403318 0.0  157.374361 -110.403318 -0.035  157.457147 -110.425501 -0.035  157.457147 -110.42550099999998 0.0
Q Nodo003  158.792164 -109.773281 0.0  158.792164 -109.773281 -0.035  157.675834 -109.7745 -0.035  157.675834 -109.7745 0.0
Q Nodo003  157.457147 -110.425501 0.0  157.457147 -110.425501 -0.035  158.776678 -110.4255 -0.035  158.776678 -110.4255 0.0
Q Nodo003  158.846681 -109.745504 0.0  158.846681 -109.745504 -0.035  158.792164 -109.773281 -0.035  158.792164 -109.773281 0.0
Q Nodo003  158.776678 -110.4255 0.0  158.776678 -110.4255 -0.035  158.834869 -110.444407 -0.035  158.834869 -110.44440699999998 0.0
Q Nodo003  158.892684 -109.6995 0.0  158.892684 -109.6995 -0.035  158.846681 -109.745504 -0.035  158.846681 -109.74550400000001 0.0
Q Nodo003  158.834869 -110.444407 0.0  158.834869 -110.444407 -0.035  158.892684 -110.500499 -0.035  158.89268399999997 -110.50049900000003 0.0
Q Nodo003  158.892684 -110.500499 0.0  158.892684 -110.500499 -0.035  158.892684 -109.6995 -0.035  158.8926839999969 -109.69949999999598 0.0
T Nodo003  166.26 -99.24 0.0  166.26 -99.24 0.0  166.26 -99.24 1.51
Q Nodo003  152.516783 -101.883609 0.0  152.516783 -101.883609 -0.035  152.257702 -102.8505 -0.035  152.25770200001088 -102.8504999999173 0.0
Q Nodo003  152.630901 -101.949496 0.0  152.630901 -101.949496 -0.035  152.516783 -101.883609 -0.035  152.51678300000003 -101.88360899999995 0.0
Q Nodo003  152.257702 -102.8505 0.0  152.257702 -102.8505 -0.035  152.358113 -102.8505 -0.035  152.358113 -102.8505 0.0
Q Nodo003  152.724095 -102.04269 0.0  152.724095 -102.04269 -0.035  152.630901 -101.949496 -0.035  152.63090099999994 -101.94949600000005 0.0
Q Nodo003  152.358113 -102.8505 0.0  152.358113 -102.8505 -0.035  152.416304 -102.869407 -0.035  152.416304 -102.86940699999998 0.0
Q Nodo003  152.825311 -102.400008 0.0  152.825311 -102.400008 -0.035  152.724095 -102.04269 -0.035  152.7240950000352 -102.04268999997278 0.0
Q Nodo003  152.416304 -102.869407 0.0  152.416304 -102.869407 -0.035  154.051581 -104.50296 -0.035  154.05158099999971 -104.50296000000027 0.0
Q Nodo003  152.853088 -102.454525 0.0  152.853088 -102.454525 -0.035  152.825311 -102.400008 -0.035  152.825311 -102.400008 0.0
Q Nodo003  154.051581 -104.50296 0.0  154.051581 -104.50296 -0.035  154.120103 -104.542521 -0.035  154.120103 -104.54252100000001 0.0
Q Nodo003  154.34338 -103.943093 0.0  154.34338 -103.943093 -0.035  152.853088 -102.454525 -0.035  152.8530880000001 -102.45452499999992 0.0
Q Nodo003  154.120103 -104.542521 0.0  154.120103 -104.542521 -0.035  154.19653 -104.563 -0.035  154.19653 -104.56300000000005 0.0
Q Nodo003  154.401571 -103.962 0.0  154.401571 -103.962 -0.035  154.34338 -103.943093 -0.035  154.34338 -103.94309300000002 0.0
Q Nodo003  154.19653 -104.563 0.0  154.19653 -104.563 -0.035  157.440271 -104.563 -0.035  157.440271 -104.563 0.0
Q Nodo003  157.455758 -103.960781 0.0  157.455758 -103.960781 -0.035  154.401571 -103.962 -0.035  154.401571 -103.962 0.0
Q Nodo003  157.440271 -104.563 0.0  157.440271 -104.563 -0.035  157.498462 -104.581907 -0.035  157.498462 -104.58190699999999 0.0
Q Nodo003  157.510272 -103.933005 0.0  157.510272 -103.933005 -0.035  157.455758 -103.960781 -0.035  157.455758 -103.96078099999997 0.0
Q Nodo003  157.498462 -104.581907 0.0  157.498462 -104.581907 -0.035  157.822702 -104.763 -0.035  157.82270200000974 -104.76299999992376 0.0
Q Nodo003  157.581278 -103.862 0.0  157.581278 -103.862 -0.035  157.510272 -103.933005 -0.035  157.51027199999993 -103.93300499999995 0.0
Q Nodo003  157.822702 -104.763 0.0  157.822702 -104.763 -0.035  157.954484 -104.763 -0.035  157.954484 -104.763 0.0
Q Nodo003  157.954484 -104.763 0.0  157.954484 -104.763 -0.035  157.581278 -103.862 -0.035  157.5812779999948 -103.8619999999932 0.0
T Nodo003  157.8 -99.25 0.0  157.8 -99.25 0.0  157.8 -99.25 1.51
T Nodo003  151.58 -119.2 0.0  151.58 -119.2 0.0  151.58 -119.2 1.51
Q Nodo003  148.529 -119.049999 0.0  148.529 -119.049999 -0.035  148.529 -118.609109 -0.035  148.529 -118.609109 0.0
Q Nodo003  148.529 -119.049999 -0.035  148.029 -119.0499996631 -0.035  148.029 -119.0499996631 0.0  148.529 -119.049999 0.0
Q Nodo003  148.029 -119.55 -0.035  148.528999 -119.55 -0.035  148.528999 -119.55 0.0  148.029 -119.55 0.0
Q Nodo003  148.529 -119.99089 0.0  148.529 -119.99089 -0.035  148.528999 -119.55 -0.035  148.528999 -119.55 0.0
Q Nodo003  148.267084 -120.623206 0.0  148.267084 -120.623206 -0.035  148.529 -119.99089 -0.035  148.52899999998664 -119.99088999999894 0.0
Q Nodo003  148.144206 -120.746084 0.0  148.144206 -120.746084 -0.035  148.267084 -120.623206 -0.035  148.267084 -120.623206 0.0
Q Nodo003  147.675 -120.982164 0.0  147.675 -120.982164 -0.035  148.144206 -120.746084 -0.035  148.14420599997356 -120.74608399996919 0.0
Q Nodo003  147.675 -120.982164 -0.035  147.675 -120.4538330292 -0.035  147.675 -120.4538330292 0.0  147.675 -120.982164 0.0
Q Nodo003  147.175 -120.4538330292 -0.035  147.175 -120.982165 -0.035  147.175 -120.982165 0.0  147.175 -120.4538330292 0.0
Q Nodo003  146.321 -119.99089 0.0  146.321 -119.99089 -0.035  147.175 -120.982165 -0.035  147.17500000000786 -120.98216499996602 0.0
Q Nodo003  146.321 -119.550001 0.0  146.321 -119.550001 -0.035  146.321 -119.99089 -0.035  146.321 -119.99089 0.0
Q Nodo003  146.321 -119.550001 -0.035  146.821 -119.5500003368 -0.035  146.821 -119.5500003368 0.0  146.321 -119.550001 0.0
Q Nodo003  146.821 -119.04999966312997 -0.035  146.321 -119.049999 -0.035  146.321 -119.049999 0.0  146.821 -119.0499996631 0.0
Q Nodo003  146.321 -118.609109 0.0  146.321 -118.609109 -0.035  146.321 -119.049999 -0.035  146.321 -119.049999 0.0
Q Nodo003  146.582915 -117.976793 0.0  146.582915 -117.976793 -0.035  146.321 -118.609109 -0.035  146.32099999999105 -118.6091089999993 0.0
Q Nodo003  146.705793 -117.853915 0.0  146.705793 -117.853915 -0.035  146.582915 -117.976793 -0.035  146.582915 -117.97679299999999 0.0
Q Nodo003  147.175 -117.617834 0.0  147.175 -117.617834 -0.035  146.705793 -117.853915 -0.035  146.70579299995578 -117.85391499994847 0.0
Q Nodo003  147.175 -117.617834 -0.035  147.175 -118.146167665 -0.035  147.175 -118.146167665 0.0  147.175 -117.617834 0.0
Q Nodo003  147.675 -118.146167665 -0.035  147.675 -117.617834 -0.035  147.675 -117.617834 0.0  147.675 -118.146167665 0.0
Q Nodo003  148.529 -118.609109 0.0  148.529 -118.609109 -0.035  147.675 -117.617834 -0.035  147.67500000001482 -117.61783399993577 0.0
T Nodo003  145.134118 -119.3 0.0  145.134118 -119.3 0.0  145.134118 -119.3 -0.035
T Nodo003  142.134118 -119.3 0.0  142.134118 -119.3 0.0  142.134118 -119.3 -0.035
Q Nodo003  129.993191 -114.233609 0.0  129.993191 -114.233609 -0.035  130.107314 -115.1005 -0.035  130.1073139999544 -115.10049999994058 0.0
Q Nodo003  130.107309 -114.299496 0.0  130.107309 -114.299496 -0.035  129.993191 -114.233609 -0.035  129.99319100000002 -114.23360899999996 0.0
Q Nodo003  130.107314 -115.1005 0.0  130.107314 -115.1005 -0.035  130.178319 -115.029494 -0.035  130.17831899999993 -115.02949399999996 0.0
Q Nodo003  130.19013 -114.380593 0.0  130.19013 -114.380593 -0.035  130.107309 -114.299496 -0.035  130.107309 -114.29949600000002 0.0
Q Nodo003  130.178319 -115.029494 0.0  130.178319 -115.029494 -0.035  130.232834 -115.001719 -0.035  130.232834 -115.001719 0.0
Q Nodo003  130.248321 -114.3995 0.0  130.248321 -114.3995 -0.035  130.19013 -114.380593 -0.035  130.19013 -114.38059300000002 0.0
Q Nodo003  130.232834 -115.001719 0.0  130.232834 -115.001719 -0.035  146.134521 -115.0005 -0.035  146.134521 -115.0005 0.0
Q Nodo003  146.339562 -114.3995 0.0  146.339562 -114.3995 -0.035  130.248321 -114.3995 -0.035  130.248321 -114.3995 0.0
Q Nodo003  146.134521 -115.0005 0.0  146.134521 -115.0005 -0.035  146.192712 -115.019407 -0.035  146.192712 -115.01940699999999 0.0
Q Nodo003  146.415988 -114.419978 0.0  146.415988 -114.419978 -0.035  146.339562 -114.3995 -0.035  146.339562 -114.39949999999999 0.0
Q Nodo003  146.192712 -115.019407 0.0  146.192712 -115.019407 -0.035  151.065489 -119.89046 -0.035  151.06548900000013 -119.89045999999989 0.0
Q Nodo003  146.484511 -114.45954 0.0  146.484511 -114.45954 -0.035  146.415988 -114.419978 -0.035  146.415988 -114.419978 0.0
Q Nodo003  151.065489 -119.89046 0.0  151.065489 -119.89046 -0.035  151.134011 -119.930021 -0.035  151.134011 -119.930021 0.0
Q Nodo003  151.357288 -119.330593 0.0  151.357288 -119.330593 -0.035  146.484511 -114.45954 -0.035  146.48451099999988 -114.4595400000001 0.0
Q Nodo003  151.134011 -119.930021 0.0  151.134011 -119.930021 -0.035  151.210438 -119.9505 -0.035  151.210438 -119.95049999999998 0.0
Q Nodo003  151.415479 -119.3495 0.0  151.415479 -119.3495 -0.035  151.357288 -119.330593 -0.035  151.357288 -119.33059300000001 0.0
Q Nodo003  151.210438 -119.9505 0.0  151.210438 -119.9505 -0.035  153.689563 -119.950499 -0.035  153.689563 -119.950499 0.0
Q Nodo003  153.500009 -119.348281 0.0  153.500009 -119.348281 -0.035  151.415479 -119.3495 -0.035  151.415479 -119.3495 0.0
Q Nodo003  153.689563 -119.950499 0.0  153.689563 -119.950499 -0.035  153.765989 -119.930021 -0.035  153.765989 -119.93002099999998 0.0
Q Nodo003  153.554526 -119.320503 0.0  153.554526 -119.320503 -0.035  153.500009 -119.348281 -0.035  153.500009 -119.348281 0.0
Q Nodo003  153.765989 -119.930021 0.0  153.765989 -119.930021 -0.035  153.834511 -119.89046 -0.035  153.834511 -119.89045999999999 0.0
Q Nodo003  153.880593 -118.992712 0.0  153.880593 -118.992712 -0.035  153.554526 -119.320503 -0.035  153.5545260000001 -119.32050300000009 0.0
Q Nodo003  153.834511 -119.89046 0.0  153.834511 -119.89046 -0.035  154.295473 -119.429497 -0.035  154.295473 -119.429497 0.0
Q Nodo003  153.8995 -118.934521 0.0  153.8995 -118.934521 -0.035  153.880593 -118.992712 -0.035  153.880593 -118.992712 0.0
Q Nodo003  154.295473 -119.429497 0.0  154.295473 -119.429497 -0.035  154.34999 -119.401719 -0.035  154.34999 -119.401719 0.0
Q Nodo003  153.8995 -118.834109 0.0  153.8995 -118.834109 -0.035  153.8995 -118.934521 -0.035  153.8995 -118.934521 0.0
Q Nodo003  154.34999 -119.401719 0.0  154.34999 -119.401719 -0.035  154.707314 -119.3005 -0.035  154.7073139999841 -119.30049999997946 0.0
Q Nodo003  154.8005 -119.207314 0.0  154.8005 -119.207314 -0.035  153.8995 -118.834109 -0.035  153.89949999998967 -118.83410899999865 0.0
Q Nodo003  154.707314 -119.3005 0.0  154.707314 -119.3005 -0.035  154.8005 -119.207314 -0.035  154.8005 -119.207314 0.0
Q Nodo003  139.073552 -118.401448 0.0  139.073552 -118.401448 -0.035  139.007231 -118.357133 -0.035  139.007231 -118.35713300000002 0.0
Q Nodo003  139.117867 -118.467769 0.0  139.117867 -118.467769 -0.035  139.073552 -118.401448 -0.035  139.073552 -118.401448 0.0
Q Nodo003  139.007231 -118.357133 0.0  139.007231 -118.357133 -0.035  138.948748 -118.3455 -0.035  138.948748 -118.34550000000003 0.0
Q Nodo003  139.1295 -118.526252 0.0  139.1295 -118.526252 -0.035  139.117867 -118.467769 -0.035  139.11786699999996 -118.467769 0.0
Q Nodo003  138.948748 -118.3455 0.0  138.948748 -118.3455 -0.035  137.401241 -118.345501 -0.035  137.401241 -118.345501 0.0
Q Nodo003  139.1295 -120.073748 0.0  139.1295 -120.073748 -0.035  139.1295 -118.526252 -0.035  139.1295 -118.526252 0.0
Q Nodo003  137.401241 -118.345501 0.0  137.401241 -118.345501 -0.035  137.342766 -118.357134 -0.035  137.342766 -118.35713399999999 0.0
Q Nodo003  139.117867 -120.132231 0.0  139.117867 -120.132231 -0.035  139.1295 -120.073748 -0.035  139.12950000000004 -120.073748 0.0
Q Nodo003  137.342766 -118.357134 0.0  137.342766 -118.357134 -0.035  137.276445 -118.401451 -0.035  137.276445 -118.40145099999998 0.0
Q Nodo003  139.073552 -120.198552 0.0  139.073552 -120.198552 -0.035  139.117867 -120.132231 -0.035  139.117867 -120.132231 0.0
Q Nodo003  137.276445 -118.401451 0.0  137.276445 -118.401451 -0.035  137.232132 -118.467772 -0.035  137.23213199999998 -118.46777199999998 0.0
Q Nodo003  139.007231 -120.242867 0.0  139.007231 -120.242867 -0.035  139.073552 -120.198552 -0.035  139.073552 -120.19855200000002 0.0
Q Nodo003  137.232132 -118.467772 0.0  137.232132 -118.467772 -0.035  137.2205 -118.526253 -0.035  137.2205 -118.526253 0.0
Q Nodo003  138.948748 -120.2545 0.0  138.948748 -120.2545 -0.035  139.007231 -120.242867 -0.035  139.007231 -120.24286700000002 0.0
Q Nodo003  137.2205 -118.526253 0.0  137.2205 -118.526253 -0.035  137.2205 -120.073746 -0.035  137.2205 -120.073746 0.0
Q Nodo003  137.401253 -120.2545 0.0  137.401253 -120.2545 -0.035  138.948748 -120.2545 -0.035  138.948748 -120.2545 0.0
Q Nodo003  137.2205 -120.073746 0.0  137.2205 -120.073746 -0.035  137.232133 -120.132231 -0.035  137.23213299999998 -120.132231 0.0
Q Nodo003  137.342769 -120.242867 0.0  137.342769 -120.242867 -0.035  137.401253 -120.2545 -0.035  137.401253 -120.25449999999998 0.0
Q Nodo003  137.232133 -120.132231 0.0  137.232133 -120.132231 -0.035  137.276448 -120.198552 -0.035  137.276448 -120.198552 0.0
Q Nodo003  137.276448 -120.198552 0.0  137.276448 -120.198552 -0.035  137.342769 -120.242867 -0.035  137.342769 -120.24286699999999 0.0
Q Nodo003  136.029 -119.049999 0.0  136.029 -119.049999 -0.035  136.029 -118.609109 -0.035  136.029 -118.609109 0.0
Q Nodo003  136.029 -119.049999 -0.035  135.529 -119.0499996631 -0.035  135.529 -119.0499996631 0.0  136.029 -119.049999 0.0
Q Nodo003  135.529 -119.55 -0.035  136.028999 -119.55 -0.035  136.028999 -119.55 0.0  135.529 -119.55 0.0
Q Nodo003  136.029 -119.99089 0.0  136.029 -119.99089 -0.035  136.028999 -119.55 -0.035  136.028999 -119.55 0.0
Q Nodo003  135.767084 -120.623206 0.0  135.767084 -120.623206 -0.035  136.029 -119.99089 -0.035  136.02899999998664 -119.99088999999894 0.0
Q Nodo003  135.644206 -120.746084 0.0  135.644206 -120.746084 -0.035  135.767084 -120.623206 -0.035  135.767084 -120.623206 0.0
Q Nodo003  135.175 -120.982164 0.0  135.175 -120.982164 -0.035  135.644206 -120.746084 -0.035  135.64420599997356 -120.74608399996919 0.0
Q Nodo003  135.175 -120.982164 -0.035  135.175 -120.4538330292 -0.035  135.175 -120.4538330292 0.0  135.175 -120.982164 0.0
Q Nodo003  134.675 -120.4538330292 -0.035  134.675 -120.982165 -0.035  134.675 -120.982165 0.0  134.675 -120.4538330292 0.0
Q Nodo003  133.821 -119.99089 0.0  133.821 -119.99089 -0.035  134.675 -120.982165 -0.035  134.67500000000786 -120.98216499996602 0.0
Q Nodo003  133.821 -119.550001 0.0  133.821 -119.550001 -0.035  133.821 -119.99089 -0.035  133.821 -119.99089 0.0
Q Nodo003  133.821 -119.550001 -0.035  134.321 -119.5500003368 -0.035  134.321 -119.5500003368 0.0  133.821 -119.550001 0.0
Q Nodo003  134.321 -119.04999966312997 -0.035  133.821 -119.049999 -0.035  133.821 -119.049999 0.0  134.321 -119.0499996631 0.0
Q Nodo003  133.821 -118.609109 0.0  133.821 -118.609109 -0.035  133.821 -119.049999 -0.035  133.821 -119.049999 0.0
Q Nodo003  134.082915 -117.976793 0.0  134.082915 -117.976793 -0.035  133.821 -118.609109 -0.035  133.82099999999105 -118.6091089999993 0.0
Q Nodo003  134.205793 -117.853915 0.0  134.205793 -117.853915 -0.035  134.082915 -117.976793 -0.035  134.082915 -117.97679299999999 0.0
Q Nodo003  134.675 -117.617834 0.0  134.675 -117.617834 -0.035  134.205793 -117.853915 -0.035  134.20579299995578 -117.85391499994847 0.0
Q Nodo003  134.675 -117.617834 -0.035  134.675 -118.146167665 -0.035  134.675 -118.146167665 0.0  134.675 -117.617834 0.0
Q Nodo003  135.175 -118.146167665 -0.035  135.175 -117.617834 -0.035  135.175 -117.617834 0.0  135.175 -118.146167665 0.0
Q Nodo003  136.029 -118.609109 0.0  136.029 -118.609109 -0.035  135.175 -117.617834 -0.035  135.17500000001482 -117.61783399993577 0.0
T Nodo003  127.404372 -120.4 0.0  127.404372 -120.4 0.0  127.404372 -120.4 -0.035
T Nodo003  147.1 -107.45 0.0  147.1 -107.45 0.0  147.1 -107.45 1.51
T Nodo003  143.5 -103.35 0.0  143.5 -103.35 0.0  143.5 -103.35 1.51
Q Nodo003  158.0495 -81.984109 0.0  158.0495 -81.984109 -0.035  158.0495 -82.049165 -0.035  158.0495 -82.049165 0.0
Q Nodo003  158.615892 -82.5505 0.0  158.615892 -82.5505 -0.035  158.0495 -81.984109 -0.035  158.0494999999911 -81.98410899999884 0.0
Q Nodo003  158.535348 -82.551719 0.0  158.535348 -82.551719 -0.035  158.615892 -82.5505 -0.035  158.615892 -82.5505 0.0
Q Nodo003  158.480831 -82.579496 0.0  158.480831 -82.579496 -0.035  158.535348 -82.551719 -0.035  158.535348 -82.551719 0.0
Q Nodo003  158.319407 -82.742644 0.0  158.319407 -82.742644 -0.035  158.480831 -82.579496 -0.035  158.480831 -82.57949599999999 0.0
Q Nodo003  158.3005 -82.800835 0.0  158.3005 -82.800835 -0.035  158.319407 -82.742644 -0.035  158.31940699999998 -82.742644 0.0
Q Nodo003  158.3005 -82.865892 0.0  158.3005 -82.865892 -0.035  158.3005 -82.800835 -0.035  158.3005 -82.800835 0.0
Q Nodo003  157.49269 -83.200503 0.0  157.49269 -83.200503 -0.035  158.3005 -82.865892 -0.035  158.30049999999116 -82.86589199999884 0.0
Q Nodo003  157.426679 -83.1755 0.0  157.426679 -83.1755 -0.035  157.49269 -83.200503 -0.035  157.49269 -83.200503 0.0
Q Nodo003  146.114596 -83.176719 0.0  146.114596 -83.176719 -0.035  157.426679 -83.1755 -0.035  157.426679 -83.1755 0.0
Q Nodo003  146.060079 -83.204496 0.0  146.060079 -83.204496 -0.035  146.114596 -83.176719 -0.035  146.114596 -83.176719 0.0
Q Nodo003  143.778746 -85.487552 0.0  143.778746 -85.487552 -0.035  146.060079 -83.204496 -0.035  146.06007900000054 -83.20449600000055 0.0
Q Nodo003  143.759839 -85.545743 0.0  143.759839 -85.545743 -0.035  143.778746 -85.487552 -0.035  143.77874599999998 -85.487552 0.0
Q Nodo003  143.759839 -91.415097 0.0  143.759839 -91.415097 -0.035  143.759839 -85.545743 -0.035  143.759839 -85.545743 0.0
Q Nodo003  143.734249 -91.510599 0.0  143.734249 -91.510599 -0.035  143.759839 -91.415097 -0.035  143.759839 -91.415097 0.0
Q Nodo003  143.684813 -91.596224 0.0  143.684813 -91.596224 -0.035  143.734249 -91.510599 -0.035  143.73424900000003 -91.51059900000001 0.0
Q Nodo003  128.594407 -106.688353 0.0  128.594407 -106.688353 -0.035  143.684813 -91.596224 -0.035  143.68481299999195 -91.59622399999196 0.0
Q Nodo003  128.5755 -106.746544 0.0  128.5755 -106.746544 -0.035  128.594407 -106.688353 -0.035  128.594407 -106.688353 0.0
Q Nodo003  128.5755 -117.1005 0.0  128.5755 -117.1005 -0.035  128.5755 -106.746544 -0.035  128.5755 -106.746544 0.0
Q Nodo003  128.6745 -117.1995 0.0  128.5755 -117.1005 0.0  128.57549999999873 -117.1005 -0.035  128.6745 -117.1995 -0.035
Q Nodo003  128.884694 -117.202353 0.0  128.884694 -117.202353 -0.035  128.6745 -117.1995 -0.035  128.6745 -117.1995 0.0
Q Nodo003  129.247646 -117.565301 0.0  129.247646 -117.565301 -0.035  128.884694 -117.202353 -0.035  128.8846940000126 -117.2023529999335 0.0
Q Nodo003  129.2505 -117.717348 0.0  129.2505 -117.717348 -0.035  129.247646 -117.565301 -0.035  129.247646 -117.565301 0.0
Q Nodo003  129.443654 -117.747941 0.0  129.2505 -117.717348 0.0  129.25049999999382 -117.717348 -0.035  129.443654 -117.747941 -0.035
Q Nodo003  129.545375 -117.542447 0.0  129.545375 -117.542447 -0.035  129.443654 -117.747941 -0.035  129.44365399999992 -117.74794099999995 0.0
Q Nodo003  130.383878 -116.93324 0.0  130.383878 -116.93324 -0.035  129.545375 -117.542447 -0.035  129.54537499995985 -117.54244699997538 0.0
Q Nodo003  130.449999 -116.922767 0.0  130.449999 -116.922767 -0.035  130.383878 -116.93324 -0.035  130.383878 -116.93323999999998 0.0
Q Nodo003  130.449999 -116.922767 0.0  130.449999 -116.922767 -0.035  130.44999949302 -117.4375966815 -0.035  130.44999949302 -117.4375966815 0.0
Q Nodo003  130.95 -117.4375965255 -0.035  130.95 -116.922767 -0.035  130.95 -116.922767 0.0  130.95 -117.4375965255 0.0
Q Nodo003  131.01612 -116.93324 0.0  131.01612 -116.93324 -0.035  130.95 -116.922767 -0.035  130.95 -116.92276699999998 0.0
Q Nodo003  131.729722 -117.370535 0.0  131.729722 -117.370535 -0.035  131.01612 -116.93324 -0.035  131.01612000001285 -116.93323999994648 0.0
Q Nodo003  131.854624 -117.542447 0.0  131.854624 -117.542447 -0.035  131.729722 -117.370535 -0.035  131.72972199999998 -117.37053500000003 0.0
Q Nodo003  132.05 -118.149999 0.0  132.05 -118.149999 -0.035  131.854624 -117.542447 -0.035  131.85462400003294 -117.54244699997975 0.0
Q Nodo003  132.05 -118.149999 0.0  132.05 -118.149999 -0.035  131.54409705433 -118.1499995517 -0.035  131.54409705433 -118.1499995517 0.0
Q Nodo003  131.54409715373 -118.65 -0.035  132.049999 -118.65 -0.035  132.049999 -118.65 0.0  131.54409715373 -118.65 0.0
Q Nodo003  131.016122 -119.866758 0.0  131.016122 -119.866758 -0.035  132.049999 -118.65 -0.035  132.0499989999857 -118.64999999999895 0.0
Q Nodo003  130.95 -119.877231 0.0  130.95 -119.877231 -0.035  131.016122 -119.866758 -0.035  131.016122 -119.86675799999999 0.0
Q Nodo003  130.95 -119.877231 0.0  130.95 -119.877231 -0.035  130.95 -119.3624038652 -0.035  130.95 -119.3624038652 0.0
Q Nodo003  130.45 -119.3624038652 -0.035  130.45 -119.87723 -0.035  130.45 -119.87723 0.0  130.45 -119.3624038652 0.0
Q Nodo003  130.383877 -119.866758 0.0  130.383877 -119.866758 -0.035  130.45 -119.87723 -0.035  130.45 -119.87723 0.0
Q Nodo003  129.545375 -119.257552 0.0  129.545375 -119.257552 -0.035  130.383877 -119.866758 -0.035  130.38387700000848 -119.86675799996479 0.0
Q Nodo003  129.429593 -119.02446 0.0  129.429593 -119.02446 -0.035  129.545375 -119.257552 -0.035  129.54537500000004 -119.25755199999999 0.0
Q Nodo003  129.269407 -119.02446 0.0  129.429593 -119.02446 0.0  129.42959300004654 -119.02445999996621 -0.035  129.269407 -119.02446 -0.035
Q Nodo003  129.2505 -119.082651 0.0  129.2505 -119.082651 -0.035  129.269407 -119.02446 -0.035  129.26940699999997 -119.02446 0.0
Q Nodo003  128.884699 -119.597646 0.0  128.884699 -119.597646 -0.035  129.2505 -119.082651 -0.035  129.2505000000045 -119.08265099999932 0.0
Q Nodo003  127.515301 -119.597646 0.0  127.515301 -119.597646 -0.035  128.884699 -119.597646 -0.035  128.884699 -119.597646 0.0
Q Nodo003  127.152355 -119.234703 0.0  127.152355 -119.234703 -0.035  127.515301 -119.597646 -0.035  127.5153010000106 -119.59764599994396 0.0
Q Nodo003  127.152353 -117.565305 0.0  127.152353 -117.565305 -0.035  127.152355 -119.234703 -0.035  127.152355 -119.234703 0.0
Q Nodo003  127.515296 -117.202355 0.0  127.515296 -117.202355 -0.035  127.152353 -117.565305 -0.035  127.15235299997542 -117.56530499999535 0.0
Q Nodo003  127.7255 -117.1995 0.0  127.7255 -117.1995 -0.035  127.515296 -117.202355 -0.035  127.515296 -117.202355 0.0
Q Nodo003  127.8245 -117.1005 0.0  127.7255 -117.1995 0.0  127.7255 -117.19949999999129 -0.035  127.8245 -117.1005 -0.035
Q Nodo003  127.8245 -106.500566 0.0  127.8245 -106.500566 -0.035  127.8245 -117.1005 -0.035  127.8245 -117.1005 0.0
Q Nodo003  127.850091 -106.405057 0.0  127.850091 -106.405057 -0.035  127.8245 -106.500566 -0.035  127.82449999999996 -106.50056599999999 0.0
Q Nodo003  127.899524 -106.319438 0.0  127.899524 -106.319438 -0.035  127.850091 -106.405057 -0.035  127.85009100000005 -106.40505700000003 0.0
Q Nodo003  142.989932 -91.227307 0.0  142.989932 -91.227307 -0.035  127.899524 -106.319438 -0.035  127.89952399999416 -106.31943799999416 0.0
Q Nodo003  143.008839 -91.169116 0.0  143.008839 -91.169116 -0.035  142.989932 -91.227307 -0.035  142.989932 -91.227307 0.0
Q Nodo003  143.008839 -85.299764 0.0  143.008839 -85.299764 -0.035  143.008839 -91.169116 -0.035  143.008839 -91.169116 0.0
Q Nodo003  143.03443 -85.204255 0.0  143.03443 -85.204255 -0.035  143.008839 -85.299764 -0.035  143.00883899999997 -85.29976399999998 0.0
Q Nodo003  143.083863 -85.118636 0.0  143.083863 -85.118636 -0.035  143.03443 -85.204255 -0.035  143.03442999999996 -85.20425499999999 0.0
Q Nodo003  145.702975 -82.499526 0.0  145.702975 -82.499526 -0.035  143.083863 -85.118636 -0.035  143.08386300000072 -85.1186360000007 0.0
Q Nodo003  145.7886 -82.450089 0.0  145.7886 -82.450089 -0.035  145.702975 -82.499526 -0.035  145.702975 -82.49952600000003 0.0
Q Nodo003  145.884102 -82.4245 0.0  145.884102 -82.4245 -0.035  145.7886 -82.450089 -0.035  145.78860000000003 -82.45008900000006 0.0
Q Nodo003  157.442166 -82.423281 0.0  157.442166 -82.423281 -0.035  145.884102 -82.4245 -0.035  145.884102 -82.4245 0.0
Q Nodo003  157.485726 -82.401086 0.0  157.485726 -82.401086 -0.035  157.442166 -82.423281 -0.035  157.442166 -82.423281 0.0
Q Nodo003  157.606809 -82.333609 0.0  157.606809 -82.333609 -0.035  157.485726 -82.401086 -0.035  157.48572600000003 -82.40108600000006 0.0
Q Nodo003  157.734108 -82.2995 0.0  157.734108 -82.2995 -0.035  157.606809 -82.333609 -0.035  157.606809 -82.33360899999998 0.0
Q Nodo003  157.814652 -82.298281 0.0  157.814652 -82.298281 -0.035  157.734108 -82.2995 -0.035  157.734108 -82.2995 0.0
Q Nodo003  157.869169 -82.270504 0.0  157.869169 -82.270504 -0.035  157.814652 -82.298281 -0.035  157.814652 -82.298281 0.0
Q Nodo003  158.030593 -82.107356 0.0  158.030593 -82.107356 -0.035  157.869169 -82.270504 -0.035  157.8691689999999 -82.2705039999999 0.0
Q Nodo003  158.0495 -82.049165 0.0  158.0495 -82.049165 -0.035  158.030593 -82.107356 -0.035  158.030593 -82.107356 0.0
T Nodo003  141.97 -101.53 0.0  141.97 -101.53 0.0  141.97 -101.53 1.51
T Nodo003  134.27 -106.59 0.0  134.27 -106.59 0.0  134.27 -106.59 1.51
T Nodo003  132.09 -104.49 0.0  132.09 -104.49 0.0  132.09 -104.49 1.51
Q Nodo003  170.980593 -93.792712 0.0  170.980593 -93.792712 -0.035  170.904526 -93.870503 -0.035  170.90452599999995 -93.87050299999996 0.0
Q Nodo003  170.998281 -93.750007 0.0  170.998281 -93.750007 -0.035  170.980593 -93.792712 -0.035  170.980593 -93.792712 0.0
Q Nodo003  170.904526 -93.870503 0.0  170.904526 -93.870503 -0.035  170.85001 -93.898281 -0.035  170.85001 -93.898281 0.0
Q Nodo003  171.9005 -94.007314 0.0  171.9005 -94.007314 -0.035  170.998281 -93.750007 -0.035  170.99828099999837 -93.75000700000015 0.0
Q Nodo003  170.85001 -93.898281 0.0  170.85001 -93.898281 -0.035  161.148321 -93.8995 -0.035  161.148321 -93.8995 0.0
Q Nodo003  171.807314 -94.1005 0.0  171.807314 -94.1005 -0.035  171.9005 -94.007314 -0.035  171.9005 -94.007314 0.0
Q Nodo003  161.148321 -93.8995 0.0  161.148321 -93.8995 -0.035  161.09013 -93.880593 -0.035  161.09013 -93.880593 0.0
Q Nodo003  171.44999 -94.201719 0.0  171.44999 -94.201719 -0.035  171.807314 -94.1005 -0.035  171.80731399999863 -94.10049999999823 0.0
Q Nodo003  161.09013 -93.880593 0.0  161.09013 -93.880593 -0.035  160.765892 -93.6995 -0.035  160.76589200000086 -93.69949999999338 0.0
Q Nodo003  171.395473 -94.229496 0.0  171.395473 -94.229496 -0.035  171.44999 -94.201719 -0.035  171.44999 -94.201719 0.0
Q Nodo003  160.765892 -93.6995 0.0  160.765892 -93.6995 -0.035  160.634108 -93.6995 -0.035  160.634108 -93.6995 0.0
Q Nodo003  171.184511 -94.44046 0.0  171.184511 -94.44046 -0.035  171.395473 -94.229496 -0.035  171.39547300000007 -94.22949600000005 0.0
Q Nodo003  160.634108 -93.6995 0.0  160.634108 -93.6995 -0.035  160.392686 -94.6005 -0.035  160.39268599999733 -94.60050000000349 0.0
Q Nodo003  171.115989 -94.480021 0.0  171.115989 -94.480021 -0.035  171.184511 -94.44046 -0.035  171.184511 -94.44046 0.0
Q Nodo003  160.392686 -94.6005 0.0  160.392686 -94.6005 -0.035  160.417391 -94.614763 -0.035  160.417391 -94.61476300000001 0.0
Q Nodo003  171.039563 -94.500499 0.0  171.039563 -94.500499 -0.035  171.115989 -94.480021 -0.035  171.115989 -94.48002099999998 0.0
Q Nodo003  160.417391 -94.614763 0.0  160.37824 -94.798958 0.0  160.37823999999955 -94.79895799999568 -0.035  160.417391 -94.614763 -0.035
Q Nodo003  161.140679 -94.501101 0.0  161.140679 -94.501101 -0.035  171.039563 -94.500499 -0.035  171.039563 -94.500499 0.0
Q Nodo003  160.37824 -94.798958 0.0  160.37824 -94.798958 -0.035  159.468322 -94.7995 -0.035  159.468322 -94.7995 0.0
Q Nodo003  161.083379 -94.524777 0.0  161.083379 -94.524777 -0.035  161.140679 -94.501101 -0.035  161.140679 -94.50110100000003 0.0
Q Nodo003  159.468322 -94.7995 0.0  159.468322 -94.7995 -0.035  159.410131 -94.780593 -0.035  159.410131 -94.78059300000001 0.0
Q Nodo003  161.007314 -94.6005 0.0  161.007314 -94.6005 -0.035  161.083379 -94.524777 -0.035  161.08337900000006 -94.52477700000004 0.0
Q Nodo003  159.410131 -94.780593 0.0  159.410131 -94.780593 -0.035  159.347315 -94.7195 -0.035  159.34731499999998 -94.71950000000004 0.0
Q Nodo003  160.974358 -94.619527 0.0  160.974358 -94.619527 -0.035  161.007314 -94.6005 -0.035  161.007314 -94.60050000000001 0.0
Q Nodo003  159.347315 -94.7195 0.0  159.347315 -94.7195 -0.035  159.438319 -95.429494 -0.035  159.4383189999961 -95.42949399999698 0.0
Q Nodo003  161.032109 -94.7995 0.0  160.974358 -94.619527 0.0  160.97435799999573 -94.6195269999941 -0.035  161.032109 -94.7995 -0.035
Q Nodo003  159.438319 -95.429494 0.0  159.438319 -95.429494 -0.035  159.492834 -95.401719 -0.035  159.492834 -95.40171900000001 0.0
Q Nodo003  172.239562 -94.7995 0.0  172.239562 -94.7995 -0.035  161.032109 -94.7995 -0.035  161.032109 -94.7995 0.0
Q Nodo003  159.492834 -95.401719 0.0  159.492834 -95.401719 -0.035  172.034521 -95.4005 -0.035  172.034521 -95.4005 0.0
Q Nodo003  172.315988 -94.819978 0.0  172.315988 -94.819978 -0.035  172.239562 -94.7995 -0.035  172.239562 -94.79949999999998 0.0
Q Nodo003  172.034521 -95.4005 0.0  172.034521 -95.4005 -0.035  172.092712 -95.419407 -0.035  172.092712 -95.41940699999999 0.0
Q Nodo003  172.384511 -94.85954 0.0  172.384511 -94.85954 -0.035  172.315988 -94.819978 -0.035  172.315988 -94.819978 0.0
Q Nodo003  172.092712 -95.419407 0.0  172.092712 -95.419407 -0.035  176.182252 -99.507223 -0.035  176.18225199999847 -99.50722300000155 0.0
Q Nodo003  176.707288 -99.180593 0.0  176.707288 -99.180593 -0.035  172.384511 -94.85954 -0.035  172.38451100000157 -94.85953999999842 0.0
Q Nodo003  176.182252 -99.507223 0.0  176.182252 -99.507223 -0.035  176.210029 -99.56174 -0.035  176.21002900000002 -99.56173999999999 0.0
Q Nodo003  176.759598 -99.197589 0.0  176.759598 -99.197589 -0.035  176.707288 -99.180593 -0.035  176.707288 -99.180593 0.0
Q Nodo003  176.210029 -99.56174 0.0  176.210029 -99.56174 -0.035  176.207876 -99.602846 -0.035  176.207876 -99.602846 0.0
Q Nodo003  176.893191 -99.233609 0.0  176.893191 -99.233609 -0.035  176.759598 -99.197589 -0.035  176.759598 -99.19758900000004 0.0
Q Nodo003  176.207876 -99.602846 0.0  176.207876 -99.602846 -0.035  176.1995 -99.634108 -0.035  176.1995 -99.634108 0.0
Q Nodo003  176.1995 -99.634108 0.0  176.1995 -99.634108 -0.035  176.893191 -99.233609 -0.035  176.89319100000174 -99.23360899999578 0.0
T Nodo003  169.573165 -90.2125 0.0  169.573165 -90.2125 0.0  169.573165 -90.2125 1.51
Q Nodo003  164.170505 -86.878319 0.0  164.170505 -86.878319 -0.035  164.198281 -86.932834 -0.035  164.19828100000004 -86.93283399999999 0.0
Q Nodo003  164.099496 -86.807309 0.0  164.099496 -86.807309 -0.035  164.170505 -86.878319 -0.035  164.170505 -86.878319 0.0
Q Nodo003  164.198281 -86.932834 0.0  164.198281 -86.932834 -0.035  164.1995 -88.234521 -0.035  164.1995 -88.234521 0.0
Q Nodo003  165.0005 -86.434108 0.0  165.0005 -86.434108 -0.035  164.099496 -86.807309 -0.035  164.09949599999874 -86.80730900000097 0.0
Q Nodo003  164.1995 -88.234521 0.0  164.1995 -88.234521 -0.035  164.180593 -88.292712 -0.035  164.18059300000002 -88.292712 0.0
Q Nodo003  165.0005 -86.565892 0.0  165.0005 -86.565892 -0.035  165.0005 -86.434108 -0.035  165.0005 -86.434108 0.0
Q Nodo003  164.180593 -88.292712 0.0  164.180593 -88.292712 -0.035  164.059539 -88.415489 -0.035  164.059539 -88.415489 0.0
Q Nodo003  164.819407 -86.89013 0.0  164.819407 -86.89013 -0.035  165.0005 -86.565892 -0.035  165.00049999999766 -86.5658919999997 0.0
Q Nodo003  164.059539 -88.415489 0.0  164.059539 -88.415489 -0.035  164.019978 -88.484011 -0.035  164.019978 -88.484011 0.0
Q Nodo003  164.8005 -86.948321 0.0  164.8005 -86.948321 -0.035  164.819407 -86.89013 -0.035  164.81940699999998 -86.89013 0.0
Q Nodo003  164.019978 -88.484011 0.0  164.019978 -88.484011 -0.035  163.9995 -88.560435 -0.035  163.99949999999998 -88.560435 0.0
Q Nodo003  164.8005 -88.439562 0.0  164.8005 -88.439562 -0.035  164.8005 -86.948321 -0.035  164.8005 -86.948321 0.0
Q Nodo003  163.9995 -88.560435 0.0  163.9995 -88.560435 -0.035  163.9995 -89.551679 -0.035  163.9995 -89.551679 0.0
Q Nodo003  164.780022 -88.515988 0.0  164.780022 -88.515988 -0.035  164.8005 -88.439562 -0.035  164.80050000000003 -88.439562 0.0
Q Nodo003  163.9995 -89.551679 0.0  163.9995 -89.551679 -0.035  163.980593 -89.60987 -0.035  163.98059300000003 -89.60987 0.0
Q Nodo003  164.74046 -88.584511 0.0  164.74046 -88.584511 -0.035  164.780022 -88.515988 -0.035  164.780022 -88.515988 0.0
Q Nodo003  163.980593 -89.60987 0.0  163.980593 -89.60987 -0.035  163.7995 -89.934108 -0.035  163.79949999999195 -89.93410799999897 0.0
Q Nodo003  164.619407 -88.707287 0.0  164.619407 -88.707287 -0.035  164.74046 -88.584511 -0.035  164.74045999999998 -88.58451099999999 0.0
Q Nodo003  163.7995 -89.934108 0.0  163.7995 -89.934108 -0.035  163.7995 -90.065892 -0.035  163.7995 -90.065892 0.0
Q Nodo003  164.6005 -88.765478 0.0  164.6005 -88.765478 -0.035  164.619407 -88.707287 -0.035  164.619407 -88.707287 0.0
Q Nodo003  163.7995 -90.065892 0.0  163.7995 -90.065892 -0.035  164.700503 -89.69269 -0.035  164.70050299999744 -89.69269000000197 0.0
Q Nodo003  164.601719 -89.567166 0.0  164.601719 -89.567166 -0.035  164.6005 -88.765478 -0.035  164.6005 -88.765478 0.0
Q Nodo003  164.700503 -89.69269 0.0  164.700503 -89.69269 -0.035  164.629494 -89.62168 -0.035  164.629494 -89.62168 0.0
Q Nodo003  164.629494 -89.62168 0.0  164.629494 -89.62168 -0.035  164.601719 -89.567166 -0.035  164.601719 -89.567166 0.0
T Nodo003  179.4 -86.0125 0.0  179.4 -86.0125 0.0  179.4 -86.0125 1.51
Q Nodo003  177.622445 -84.860969 0.0  177.622445 -84.860969 -0.035  177.596823 -84.905348 -0.035  177.596823 -84.905348 0.0
Q Nodo003  177.633608 -84.819311 0.0  177.633608 -84.819311 -0.035  177.622445 -84.860969 -0.035  177.62244500000003 -84.860969 0.0
Q Nodo003  177.596823 -84.905348 0.0  177.596823 -84.905348 -0.035  175.711402 -86.790768 -0.035  175.7114020000004 -86.7907680000004 0.0
Q Nodo003  178.034108 -85.512998 0.0  178.034108 -85.512998 -0.035  177.633608 -84.819311 -0.035  177.63360799999325 -84.8193109999972 0.0
Q Nodo003  175.711402 -86.790768 0.0  175.711402 -86.790768 -0.035  175.738006 -86.817372 -0.035  175.738006 -86.81737199999999 0.0
Q Nodo003  177.991302 -85.501527 0.0  177.991302 -85.501527 -0.035  178.034108 -85.512998 -0.035  178.034108 -85.512998 0.0
Q Nodo003  175.738006 -86.817372 0.0  175.317372 -87.238006 0.0  175.31737199999972 -87.23800600000035 -0.035  175.738006 -86.817372 -0.035
Q Nodo003  177.950192 -85.499373 0.0  177.950192 -85.499373 -0.035  177.991302 -85.501527 -0.035  177.991302 -85.501527 0.0
Q Nodo003  175.317372 -87.238006 0.0  175.317372 -87.238006 -0.035  175.290768 -87.211402 -0.035  175.290768 -87.211402 0.0
Q Nodo003  177.895677 -85.527148 0.0  177.895677 -85.527148 -0.035  177.950192 -85.499373 -0.035  177.950192 -85.499373 0.0
Q Nodo003  175.290768 -87.211402 0.0  175.290768 -87.211402 -0.035  172.969169 -89.533004 -0.035  172.96916900000022 -89.53300400000025 0.0
Q Nodo003  173.394407 -90.030143 0.0  173.394407 -90.030143 -0.035  177.895677 -85.527148 -0.035  177.89567700000046 -85.52714800000044 0.0
Q Nodo003  172.969169 -89.533004 0.0  172.969169 -89.533004 -0.035  172.914652 -89.560781 -0.035  172.914652 -89.560781 0.0
Q Nodo003  173.3755 -90.088334 0.0  173.3755 -90.088334 -0.035  173.394407 -90.030143 -0.035  173.39440699999997 -90.030143 0.0
Q Nodo003  172.914652 -89.560781 0.0  172.914652 -89.560781 -0.035  172.809108 -89.562 -0.035  172.809108 -89.562 0.0
Q Nodo003  173.3755 -90.128392 0.0  173.3755 -90.128392 -0.035  173.3755 -90.088334 -0.035  173.3755 -90.088334 0.0
Q Nodo003  172.809108 -89.562 0.0  172.809108 -89.562 -0.035  173.3755 -90.128392 -0.035  173.37549999999584 -90.12839199999947 0.0
T Nodo003  175.5 -87.15 0.0  175.5 -87.15 0.0  175.5 -87.15 1.51
Q Nodo003  180.05 -80.549999 0.0  180.05 -80.549999 -0.035  180.05 -80.396586 -0.035  180.05 -80.396586 0.0
Q Nodo003  180.05 -80.549999 -0.035  179.55 -80.54999966666 -0.035  179.55 -80.54999966666 0.0  180.05 -80.549999 0.0
Q Nodo003  179.55 -81.05 -0.035  180.049999 -81.05 -0.035  180.049999 -81.05 0.0  179.55 -81.05 0.0
Q Nodo003  180.05 -81.203413 0.0  180.05 -81.203413 -0.035  180.049999 -81.05 -0.035  180.049999 -81.05 0.0
Q Nodo003  179.306276 -82.109648 0.0  179.306276 -82.109648 -0.035  180.05 -81.203413 -0.035  180.04999999999177 -81.20341299999919 0.0
Q Nodo003  179.25 -82.120841 0.0  179.25 -82.120841 -0.035  179.306276 -82.109648 -0.035  179.306276 -82.10964799999998 0.0
Q Nodo003  179.25 -82.120841 -0.035  179.25 -81.58989822138 -0.035  179.25 -81.58989822138 0.0  179.25 -82.120841 0.0
Q Nodo003  178.75 -81.58989822138 -0.035  178.75 -82.120842 -0.035  178.75 -82.120842 0.0  178.75 -81.58989822138 0.0
Q Nodo003  178.693723 -82.109648 0.0  178.693723 -82.109648 -0.035  178.75 -82.120842 -0.035  178.75 -82.12084199999998 0.0
Q Nodo003  177.95 -81.203418 0.0  177.95 -81.203418 -0.035  178.693723 -82.109648 -0.035  178.69372300000188 -82.10964799999387 0.0
Q Nodo003  177.95 -81.050001 0.0  177.95 -81.050001 -0.035  177.95 -81.203418 -0.035  177.95 -81.203418 0.0
Q Nodo003  177.95 -81.050001 -0.035  178.45 -81.05000033333 -0.035  178.45 -81.05000033333 0.0  177.95 -81.050001 0.0
Q Nodo003  178.45 -80.54999966666666 -0.035  177.95 -80.549999 -0.035  177.95 -80.549999 0.0  178.45 -80.54999966666 0.0
Q Nodo003  177.95 -80.396581 0.0  177.95 -80.396581 -0.035  177.95 -80.549999 -0.035  177.95 -80.549999 0.0
Q Nodo003  178.693725 -79.49035 0.0  178.693725 -79.49035 -0.035  177.95 -80.396581 -0.035  177.9499999999926 -80.39658099999927 0.0
Q Nodo003  178.75 -79.479156 0.0  178.75 -79.479156 -0.035  178.693725 -79.49035 -0.035  178.693725 -79.49035 0.0
Q Nodo003  178.75 -79.479156 -0.035  178.75 -80.01010131851 -0.035  178.75 -80.0101013185 0.0  178.75 -79.479156 0.0
Q Nodo003  179.25 -80.0101013185 -0.035  179.25 -79.479156 -0.035  179.25 -79.479156 0.0  179.25 -80.0101013185 0.0
Q Nodo003  179.306274 -79.49035 0.0  179.306274 -79.49035 -0.035  179.25 -79.479156 -0.035  179.25 -79.47915600000003 0.0
Q Nodo003  180.05 -80.396586 0.0  180.05 -80.396586 -0.035  179.306274 -79.49035 -0.035  179.30627399999963 -79.49035000000119 0.0
Q Nodo003  171.41 -80.549999 0.0  171.41 -80.549999 -0.035  171.409999 -80.396581 -0.035  171.409999 -80.396581 0.0
Q Nodo003  171.41 -80.549999 -0.035  170.91 -80.54999966666 -0.035  170.91 -80.54999966666 0.0  171.41 -80.549999 0.0
Q Nodo003  170.91 -81.05 -0.035  171.409999 -81.05 -0.035  171.409999 -81.05 0.0  170.91 -81.05 0.0
Q Nodo003  171.41 -81.203413 0.0  171.41 -81.203413 -0.035  171.409999 -81.05 -0.035  171.409999 -81.05 0.0
Q Nodo003  170.666276 -82.109648 0.0  170.666276 -82.109648 -0.035  171.41 -81.203413 -0.035  171.40999999999178 -81.20341299999919 0.0
Q Nodo003  170.61 -82.120841 0.0  170.61 -82.120841 -0.035  170.666276 -82.109648 -0.035  170.666276 -82.10964799999998 0.0
Q Nodo003  170.61 -82.120841 -0.035  170.61 -81.58989822138 -0.035  170.61 -81.58989822138 0.0  170.61 -82.120841 0.0
Q Nodo003  170.11 -81.5898982214 -0.035  170.11 -82.120842 -0.035  170.11 -82.120842 0.0  170.11 -81.58989822138 0.0
Q Nodo003  170.053723 -82.109648 0.0  170.053723 -82.109648 -0.035  170.11 -82.120842 -0.035  170.11 -82.12084199999998 0.0
Q Nodo003  169.31 -81.203418 0.0  169.31 -81.203418 -0.035  170.053723 -82.109648 -0.035  170.05372300000187 -82.10964799999387 0.0
Q Nodo003  169.31 -81.050001 0.0  169.31 -81.050001 -0.035  169.31 -81.203418 -0.035  169.31 -81.203418 0.0
Q Nodo003  169.31 -81.050001 -0.035  169.81 -81.05000033333 -0.035  169.81 -81.05000033333 0.0  169.31 -81.050001 0.0
Q Nodo003  169.81 -80.54999966666666 -0.035  169.31 -80.549999 -0.035  169.31 -80.549999 0.0  169.81 -80.54999966666 0.0
Q Nodo003  169.31 -80.396581 0.0  169.31 -80.396581 -0.035  169.31 -80.549999 -0.035  169.31 -80.549999 0.0
Q Nodo003  170.053725 -79.49035 0.0  170.053725 -79.49035 -0.035  169.31 -80.396581 -0.035  169.3099999999926 -80.39658099999927 0.0
Q Nodo003  170.11 -79.479156 0.0  170.11 -79.479156 -0.035  170.053725 -79.49035 -0.035  170.053725 -79.49035 0.0
Q Nodo003  170.11 -79.479156 -0.035  170.11 -80.01010131851 -0.035  170.11 -80.0101013185 0.0  170.11 -79.479156 0.0
Q Nodo003  170.61 -80.0101013185 -0.035  170.61 -79.479156 -0.035  170.61 -79.479156 0.0  170.61 -80.0101013185 0.0
Q Nodo003  170.666274 -79.49035 0.0  170.666274 -79.49035 -0.035  170.61 -79.479156 -0.035  170.61 -79.47915599999997 0.0
Q Nodo003  171.409999 -80.396581 0.0  171.409999 -80.396581 -0.035  170.666274 -79.49035 -0.035  170.66627400000039 -79.49034999999866 0.0
Q Nodo003  146.631293 -87.955328 0.0  146.631293 -87.955328 -0.035  146.517175 -87.889441 -0.035  146.51717500000004 -87.88944099999995 0.0
Q Nodo003  146.714114 -88.036425 0.0  146.714114 -88.036425 -0.035  146.631293 -87.955328 -0.035  146.63129300000003 -87.95532799999995 0.0
Q Nodo003  146.772305 -88.055332 0.0  146.772305 -88.055332 -0.035  146.714114 -88.036425 -0.035  146.714114 -88.03642500000001 0.0
Q Nodo003  148.645394 -88.055332 0.0  148.645394 -88.055332 -0.035  146.772305 -88.055332 -0.035  146.772305 -88.055332 0.0
Q Nodo003  148.721822 -88.075811 0.0  148.721822 -88.075811 -0.035  148.645394 -88.055332 -0.035  148.645394 -88.055332 0.0
Q Nodo003  148.790343 -88.115372 0.0  148.790343 -88.115372 -0.035  148.721822 -88.075811 -0.035  148.721822 -88.075811 0.0
Q Nodo003  149.99046 -89.315489 0.0  149.99046 -89.315489 -0.035  148.790343 -88.115372 -0.035  148.790343 -88.115372 0.0
Q Nodo003  150.030021 -89.384011 0.0  150.030021 -89.384011 -0.035  149.99046 -89.315489 -0.035  149.99046 -89.315489 0.0
Q Nodo003  150.0505 -89.460437 0.0  150.0505 -89.460437 -0.035  150.030021 -89.384011 -0.035  150.030021 -89.384011 0.0
Q Nodo003  150.051719 -90.850008 0.0  150.051719 -90.850008 -0.035  150.0505 -89.460437 -0.035  150.0505 -89.460437 0.0
Q Nodo003  150.079496 -90.904525 0.0  150.079496 -90.904525 -0.035  150.051719 -90.850008 -0.035  150.051719 -90.850008 0.0
Q Nodo003  151.107288 -91.930593 0.0  151.107288 -91.930593 -0.035  150.079496 -90.904525 -0.035  150.0794959999997 -90.9045250000003 0.0
Q Nodo003  151.165479 -91.9495 0.0  151.165479 -91.9495 -0.035  151.107288 -91.930593 -0.035  151.107288 -91.93059300000002 0.0
Q Nodo003  154.066635 -91.9495 0.0  154.066635 -91.9495 -0.035  151.165479 -91.9495 -0.035  151.165479 -91.9495 0.0
Q Nodo003  154.097775 -91.756525 0.0  154.066635 -91.9495 0.0  154.066635 -91.94949999999568 -0.035  154.097775 -91.756525 -0.035
Q Nodo003  154.030875 -91.734356 0.0  154.030875 -91.734356 -0.035  154.097775 -91.756525 -0.035  154.097775 -91.75652499999997 0.0
Q Nodo003  153.610495 -91.202699 0.0  153.610495 -91.202699 -0.035  154.030875 -91.734356 -0.035  154.03087499999918 -91.7343560000018 0.0
Q Nodo003  153.600001 -91.099986 0.0  153.600001 -91.099986 -0.035  153.610495 -91.202699 -0.035  153.61049499999996 -91.202699 0.0
Q Nodo003  153.600001 -90.950001 0.0  153.600001 -90.950001 -0.035  153.600001 -91.099986 -0.035  153.600001 -91.099986 0.0
Q Nodo003  153.600001 -90.950001 -0.035  154.1 -90.95000079166 -0.035  154.1 -90.95000079166 0.0  153.600001 -90.950001 0.0
Q Nodo003  154.1 -90.44999979166691 -0.035  153.600001 -90.45 -0.035  153.600001 -90.45 0.0  154.1 -90.44999979166 0.0
Q Nodo003  153.6 -90.300012 0.0  153.6 -90.300012 -0.035  153.600001 -90.45 -0.035  153.600001 -90.45 0.0
Q Nodo003  153.610493 -90.197306 0.0  153.610493 -90.197306 -0.035  153.6 -90.300012 -0.035  153.60000000000002 -90.300012 0.0
Q Nodo003  154.030874 -89.665643 0.0  154.030874 -89.665643 -0.035  153.610493 -90.197306 -0.035  153.6104929999924 -90.19730599999843 0.0
Q Nodo003  154.123339 -89.635003 0.0  154.123339 -89.635003 -0.035  154.030874 -89.665643 -0.035  154.03087399999998 -89.66564299999995 0.0
Q Nodo003  154.181067 -89.497401 0.0  154.123339 -89.635003 0.0  154.1233389999969 -89.63500299999063 -0.035  154.181067 -89.497401 -0.035
Q Nodo003  154.142636 -89.457809 0.0  154.142636 -89.457809 -0.035  154.181067 -89.497401 -0.035  154.181067 -89.497401 0.0
Q Nodo003  154.02785 -89.37215 0.0  154.02785 -89.37215 -0.035  154.142636 -89.457809 -0.035  154.142636 -89.45780899999998 0.0
Q Nodo003  153.947207 -89.262883 0.0  153.947207 -89.262883 -0.035  154.02785 -89.37215 -0.035  154.02784999999997 -89.37215000000003 0.0
Q Nodo003  153.902355 -89.134703 0.0  153.902355 -89.134703 -0.035  153.947207 -89.262883 -0.035  153.94720699999996 -89.26288300000002 0.0
Q Nodo003  153.902353 -88.265305 0.0  153.902353 -88.265305 -0.035  153.902355 -89.134703 -0.035  153.902355 -89.134703 0.0
Q Nodo003  154.265296 -87.902355 0.0  154.265296 -87.902355 -0.035  153.902353 -88.265305 -0.035  153.90235299999188 -88.26530499999846 0.0
Q Nodo003  155.334694 -87.902353 0.0  155.334694 -87.902353 -0.035  154.265296 -87.902355 -0.035  154.265296 -87.902355 0.0
Q Nodo003  155.697646 -88.265301 0.0  155.697646 -88.265301 -0.035  155.334694 -87.902353 -0.035  155.3346939999998 -87.90235300000107 0.0
Q Nodo003  155.703882 -88.306093 0.0  155.703882 -88.306093 -0.035  155.697646 -88.265301 -0.035  155.697646 -88.265301 0.0
Q Nodo003  155.739846 -88.355593 0.0  155.739846 -88.355593 -0.035  155.703882 -88.306093 -0.035  155.703882 -88.306093 0.0
Q Nodo003  155.798037 -88.3745 0.0  155.798037 -88.3745 -0.035  155.739846 -88.355593 -0.035  155.739846 -88.35559300000001 0.0
Q Nodo003  158.239652 -88.373281 0.0  158.239652 -88.373281 -0.035  155.798037 -88.3745 -0.035  155.798037 -88.3745 0.0
Q Nodo003  158.294169 -88.345504 0.0  158.294169 -88.345504 -0.035  158.239652 -88.373281 -0.035  158.239652 -88.373281 0.0
Q Nodo003  163.555593 -83.082356 0.0  163.555593 -83.082356 -0.035  158.294169 -88.345504 -0.035  158.29416900000132 -88.34550400000131 0.0
Q Nodo003  163.5745 -83.024165 0.0  163.5745 -83.024165 -0.035  163.555593 -83.082356 -0.035  163.55559300000002 -83.082356 0.0
Q Nodo003  163.5745 -80.622197 0.0  163.5745 -80.622197 -0.035  163.5745 -83.024165 -0.035  163.5745 -83.024165 0.0
Q Nodo003  163.447358 -80.527281 0.0  163.5745 -80.622197 0.0  163.5744999999954 -80.622197 -0.035  163.447358 -80.527281 -0.035
Q Nodo003  163.405088 -80.552725 0.0  163.405088 -80.552725 -0.035  163.447358 -80.527281 -0.035  163.447358 -80.527281 0.0
Q Nodo003  162.69269 -80.650503 0.0  162.69269 -80.650503 -0.035  163.405088 -80.552725 -0.035  163.40508799999208 -80.55272499999404 0.0
Q Nodo003  162.65987 -80.619407 0.0  162.65987 -80.619407 -0.035  162.69269 -80.650503 -0.035  162.69268999999997 -80.65050300000001 0.0
Q Nodo003  162.601679 -80.6005 0.0  162.601679 -80.6005 -0.035  162.65987 -80.619407 -0.035  162.65987 -80.619407 0.0
Q Nodo003  154.382834 -80.601719 0.0  154.382834 -80.601719 -0.035  162.601679 -80.6005 -0.035  162.601679 -80.6005 0.0
Q Nodo003  154.328319 -80.629494 0.0  154.328319 -80.629494 -0.035  154.382834 -80.601719 -0.035  154.382834 -80.60171899999999 0.0
Q Nodo003  154.307314 -80.6505 0.0  154.307314 -80.6505 -0.035  154.328319 -80.629494 -0.035  154.328319 -80.629494 0.0
Q Nodo003  154.307309 -79.849496 0.0  154.307309 -79.849496 -0.035  154.307314 -80.6505 -0.035  154.3073139999924 -80.65049999999012 0.0
Q Nodo003  154.34013 -79.880593 0.0  154.34013 -79.880593 -0.035  154.307309 -79.849496 -0.035  154.307309 -79.84949600000002 0.0
Q Nodo003  154.398321 -79.8995 0.0  154.398321 -79.8995 -0.035  154.34013 -79.880593 -0.035  154.34013 -79.880593 0.0
Q Nodo003  162.617166 -79.898281 0.0  162.617166 -79.898281 -0.035  154.398321 -79.8995 -0.035  154.398321 -79.8995 0.0
Q Nodo003  162.67168 -79.870505 0.0  162.67168 -79.870505 -0.035  162.617166 -79.898281 -0.035  162.617166 -79.89828099999998 0.0
Q Nodo003  162.692686 -79.8495 0.0  162.692686 -79.8495 -0.035  162.67168 -79.870505 -0.035  162.67168 -79.870505 0.0
Q Nodo003  163.065892 -79.7495 0.0  163.065892 -79.7495 -0.035  162.692686 -79.8495 -0.035  162.6926860000003 -79.84950000000038 0.0
Q Nodo003  163.160753 -79.774356 0.0  163.160753 -79.774356 -0.035  163.065892 -79.7495 -0.035  163.065892 -79.74949999999995 0.0
Q Nodo003  163.246244 -79.606571 0.0  163.160753 -79.774356 0.0  163.16075300000057 -79.77435599999646 -0.035  163.246244 -79.606571 -0.035
Q Nodo003  163.157356 -79.519407 0.0  163.157356 -79.519407 -0.035  163.246244 -79.606571 -0.035  163.24624400000002 -79.60657099999999 0.0
Q Nodo003  163.114652 -79.501719 0.0  163.114652 -79.501719 -0.035  163.157356 -79.519407 -0.035  163.157356 -79.519407 0.0
Q Nodo003  163.034108 -79.5005 0.0  163.034108 -79.5005 -0.035  163.114652 -79.501719 -0.035  163.114652 -79.501719 0.0
Q Nodo003  163.6005 -78.934108 0.0  163.6005 -78.934108 -0.035  163.034108 -79.5005 -0.035  163.03410800000057 -79.50049999999577 0.0
Q Nodo003  163.601719 -79.014652 0.0  163.601719 -79.014652 -0.035  163.6005 -78.934108 -0.035  163.6005 -78.934108 0.0
Q Nodo003  163.629496 -79.069169 0.0  163.629496 -79.069169 -0.035  163.601719 -79.014652 -0.035  163.60171899999997 -79.01465200000001 0.0
Q Nodo003  164.160467 -79.600141 0.0  164.160467 -79.600141 -0.035  163.629496 -79.069169 -0.035  163.62949600000013 -79.06916899999986 0.0
Q Nodo003  164.203318 -79.67436 0.0  164.203318 -79.67436 -0.035  164.160467 -79.600141 -0.035  164.160467 -79.600141 0.0
Q Nodo003  164.2255 -79.757147 0.0  164.2255 -79.757147 -0.035  164.203318 -79.67436 -0.035  164.20331800000002 -79.67435999999998 0.0
Q Nodo003  164.225501 -83.242853 0.0  164.225501 -83.242853 -0.035  164.2255 -79.757147 -0.035  164.2255 -79.757147 0.0
Q Nodo003  164.203318 -83.325638 0.0  164.203318 -83.325638 -0.035  164.225501 -83.242853 -0.035  164.22550100000004 -83.24285300000001 0.0
Q Nodo003  164.160465 -83.399862 0.0  164.160465 -83.399862 -0.035  164.203318 -83.325638 -0.035  164.20331800000005 -83.32563800000003 0.0
Q Nodo003  158.599862 -88.960465 0.0  158.599862 -88.960465 -0.035  164.160465 -83.399862 -0.035  164.160465 -83.39986200000001 0.0
Q Nodo003  158.525643 -89.003316 0.0  158.525643 -89.003316 -0.035  158.599862 -88.960465 -0.035  158.599862 -88.96046499999999 0.0
Q Nodo003  158.442853 -89.0255 0.0  158.442853 -89.0255 -0.035  158.525643 -89.003316 -0.035  158.525643 -89.00331600000003 0.0
Q Nodo003  155.77637 -89.0279 0.0  155.77637 -89.0279 -0.035  158.442853 -89.0255 -0.035  158.442853 -89.0255 0.0
Q Nodo003  155.723728 -89.059085 0.0  155.723728 -89.059085 -0.035  155.77637 -89.0279 -0.035  155.77637 -89.02789999999999 0.0
Q Nodo003  155.69947 -89.115255 0.0  155.69947 -89.115255 -0.035  155.723728 -89.059085 -0.035  155.723728 -89.059085 0.0
Q Nodo003  155.697646 -89.134699 0.0  155.697646 -89.134699 -0.035  155.69947 -89.115255 -0.035  155.69947 -89.115255 0.0
Q Nodo003  155.652793 -89.262882 0.0  155.652793 -89.262882 -0.035  155.697646 -89.134699 -0.035  155.69764599999996 -89.13469899999998 0.0
Q Nodo003  155.57215 -89.37215 0.0  155.57215 -89.37215 -0.035  155.652793 -89.262882 -0.035  155.652793 -89.262882 0.0
Q Nodo003  155.428049 -89.482371 0.0  155.428049 -89.482371 -0.035  155.57215 -89.37215 -0.035  155.57214999999997 -89.37214999999999 0.0
Q Nodo003  155.47666 -89.635003 0.0  155.428049 -89.482371 0.0  155.42804899999683 -89.48237099999768 -0.035  155.47666 -89.635003 -0.035
Q Nodo003  155.569125 -89.665643 0.0  155.569125 -89.665643 -0.035  155.47666 -89.635003 -0.035  155.47666 -89.63500300000004 0.0
Q Nodo003  155.989504 -90.1973 0.0  155.989504 -90.1973 -0.035  155.569125 -89.665643 -0.035  155.56912500000175 -89.66564299999627 0.0
Q Nodo003  155.999999 -90.300013 0.0  155.999999 -90.300013 -0.035  155.989504 -90.1973 -0.035  155.98950399999998 -90.1973 0.0
Q Nodo003  155.999999 -90.449999 0.0  155.999999 -90.449999 -0.035  155.999999 -90.300013 -0.035  155.999999 -90.300013 0.0
Q Nodo003  155.999999 -90.449999 -0.035  155.5 -90.44999920833 -0.035  155.5 -90.44999920833 0.0  155.999999 -90.449999 0.0
Q Nodo003  155.5 -90.9500002083331 -0.035  155.999999 -90.95 -0.035  155.999999 -90.95 0.0  155.5 -90.95000020833 0.0
Q Nodo003  156.0 -91.099987 0.0  156.0 -91.099987 -0.035  155.999999 -90.95 -0.035  155.999999 -90.95 0.0
Q Nodo003  155.989506 -91.202693 0.0  155.989506 -91.202693 -0.035  156.0 -91.099987 -0.035  156.0 -91.099987 0.0
Q Nodo003  155.569124 -91.734356 0.0  155.569124 -91.734356 -0.035  155.989506 -91.202693 -0.035  155.98950599999733 -91.20269299999944 0.0
Q Nodo003  155.502225 -91.756525 0.0  155.502225 -91.756525 -0.035  155.569124 -91.734356 -0.035  155.569124 -91.734356 0.0
Q Nodo003  155.533365 -91.9495 0.0  155.502225 -91.756525 0.0  155.5022249999982 -91.75652499999448 -0.035  155.533365 -91.9495 -0.035
Q Nodo003  173.35001 -91.948281 0.0  173.35001 -91.948281 -0.035  155.533365 -91.9495 -0.035  155.533365 -91.9495 0.0
Q Nodo003  173.404526 -91.920503 0.0  173.404526 -91.920503 -0.035  173.35001 -91.948281 -0.035  173.35001 -91.948281 0.0
Q Nodo003  173.480593 -91.842712 0.0  173.480593 -91.842712 -0.035  173.404526 -91.920503 -0.035  173.40452599999998 -91.92050299999997 0.0
Q Nodo003  173.498281 -91.800007 0.0  173.498281 -91.800007 -0.035  173.480593 -91.842712 -0.035  173.48059300000003 -91.84271200000002 0.0
Q Nodo003  174.4005 -92.057314 0.0  174.4005 -92.057314 -0.035  173.498281 -91.800007 -0.035  173.49828099999488 -91.8000070000005 0.0
Q Nodo003  174.307314 -92.1505 0.0  174.307314 -92.1505 -0.035  174.4005 -92.057314 -0.035  174.40050000000005 -92.05731400000006 0.0
Q Nodo003  173.94999 -92.251719 0.0  173.94999 -92.251719 -0.035  174.307314 -92.1505 -0.035  174.30731399999863 -92.15049999999825 0.0
Q Nodo003  173.895473 -92.279496 0.0  173.895473 -92.279496 -0.035  173.94999 -92.251719 -0.035  173.94999 -92.251719 0.0
Q Nodo003  173.684511 -92.49046 0.0  173.684511 -92.49046 -0.035  173.895473 -92.279496 -0.035  173.89547300000007 -92.27949600000005 0.0
Q Nodo003  173.615989 -92.530021 0.0  173.615989 -92.530021 -0.035  173.684511 -92.49046 -0.035  173.684511 -92.49046000000001 0.0
Q Nodo003  173.539563 -92.550499 0.0  173.539563 -92.550499 -0.035  173.615989 -92.530021 -0.035  173.615989 -92.53002099999998 0.0
Q Nodo003  150.960438 -92.5505 0.0  150.960438 -92.5505 -0.035  173.539563 -92.550499 -0.035  173.539563 -92.550499 0.0
Q Nodo003  150.884011 -92.530021 0.0  150.884011 -92.530021 -0.035  150.960438 -92.5505 -0.035  150.960438 -92.55049999999999 0.0
Q Nodo003  150.815489 -92.49046 0.0  150.815489 -92.49046 -0.035  150.884011 -92.530021 -0.035  150.884011 -92.53002099999999 0.0
Q Nodo003  149.50954 -91.184511 0.0  149.50954 -91.184511 -0.035  150.815489 -92.49046 -0.035  150.815489 -92.49046000000001 0.0
Q Nodo003  149.469979 -91.115989 0.0  149.469979 -91.115989 -0.035  149.50954 -91.184511 -0.035  149.50954 -91.184511 0.0
Q Nodo003  149.4495 -91.039562 0.0  149.4495 -91.039562 -0.035  149.469979 -91.115989 -0.035  149.46997899999997 -91.115989 0.0
Q Nodo003  149.448281 -89.649992 0.0  149.448281 -89.649992 -0.035  149.4495 -91.039562 -0.035  149.4495 -91.039562 0.0
Q Nodo003  149.420504 -89.595475 0.0  149.420504 -89.595475 -0.035  149.448281 -89.649992 -0.035  149.448281 -89.649992 0.0
Q Nodo003  148.498544 -88.675239 0.0  148.498544 -88.675239 -0.035  149.420504 -89.595475 -0.035  149.42050400000016 -89.59547499999981 0.0
Q Nodo003  148.440353 -88.656332 0.0  148.440353 -88.656332 -0.035  148.498544 -88.675239 -0.035  148.498544 -88.675239 0.0
Q Nodo003  146.756818 -88.657551 0.0  146.756818 -88.657551 -0.035  148.440353 -88.656332 -0.035  148.440353 -88.656332 0.0
Q Nodo003  146.702303 -88.685326 0.0  146.702303 -88.685326 -0.035  146.756818 -88.657551 -0.035  146.756818 -88.657551 0.0
Q Nodo003  146.631298 -88.756332 0.0  146.631298 -88.756332 -0.035  146.702303 -88.685326 -0.035  146.70230300000003 -88.68532600000005 0.0
Q Nodo003  146.517175 -87.889441 0.0  146.517175 -87.889441 -0.035  146.631298 -88.756332 -0.035  146.63129799999786 -88.75633199999723 0.0
T Nodo003  159.2 -87.05 0.0  159.2 -87.05 0.0  159.2 -87.05 1.51
T Nodo003  162.7 -76.65 0.0  162.7 -76.65 0.0  162.7 -76.65 1.51
Q Nodo003  147.270505 -90.378319 0.0  147.270505 -90.378319 -0.035  147.298281 -90.432834 -0.035  147.298281 -90.432834 0.0
Q Nodo003  147.199496 -90.307309 0.0  147.199496 -90.307309 -0.035  147.270505 -90.378319 -0.035  147.270505 -90.378319 0.0
Q Nodo003  147.298281 -90.432834 0.0  147.298281 -90.432834 -0.035  147.2995 -103.339564 -0.035  147.2995 -103.339564 0.0
Q Nodo003  148.1005 -89.934108 0.0  148.1005 -89.934108 -0.035  147.199496 -90.307309 -0.035  147.19949599999876 -90.30730900000097 0.0
Q Nodo003  147.2995 -103.339564 0.0  147.2995 -103.339564 -0.035  147.319979 -103.415989 -0.035  147.319979 -103.415989 0.0
Q Nodo003  148.1005 -90.065892 0.0  148.1005 -90.065892 -0.035  148.1005 -89.934108 -0.035  148.1005 -89.934108 0.0
Q Nodo003  147.319979 -103.415989 0.0  147.319979 -103.415989 -0.035  147.35954 -103.484511 -0.035  147.35954 -103.48451100000001 0.0
Q Nodo003  147.919407 -90.39013 0.0  147.919407 -90.39013 -0.035  148.1005 -90.065892 -0.035  148.10049999999768 -90.0658919999997 0.0
Q Nodo003  147.35954 -103.484511 0.0  147.35954 -103.484511 -0.035  150.998849 -107.12382 -0.035  150.998849 -107.12382 0.0
Q Nodo003  147.9005 -90.448321 0.0  147.9005 -90.448321 -0.035  147.919407 -90.39013 -0.035  147.91940699999998 -90.39013 0.0
Q Nodo003  150.998849 -107.12382 0.0  150.998849 -107.12382 -0.035  151.026625 -107.178335 -0.035  151.026625 -107.178335 0.0
Q Nodo003  147.901719 -103.150008 0.0  147.901719 -103.150008 -0.035  147.9005 -90.448321 -0.035  147.9005 -90.448321 0.0
Q Nodo003  151.026625 -107.178335 0.0  151.026625 -107.178335 -0.035  151.027844 -107.258805 -0.035  151.027844 -107.258805 0.0
Q Nodo003  147.929496 -103.204525 0.0  147.929496 -103.204525 -0.035  147.901719 -103.150008 -0.035  147.90171899999999 -103.15000800000001 0.0
Q Nodo003  151.027844 -107.258805 0.0  151.027844 -107.258805 -0.035  151.458392 -106.692413 -0.035  151.4583919999923 -106.69241299994493 0.0
Q Nodo003  151.400201 -106.673506 0.0  151.400201 -106.673506 -0.035  147.929496 -103.204525 -0.035  147.92949599999923 -103.20452500000077 0.0
Q Nodo003  151.458392 -106.692413 0.0  151.458392 -106.692413 -0.035  151.400201 -106.673506 -0.035  151.400201 -106.67350600000002 0.0
Q Nodo003  155.850644 -84.721683 0.0  155.850644 -84.721683 -0.035  155.767853 -84.6995 -0.035  155.767853 -84.69949999999999 0.0
Q Nodo003  155.924857 -84.764531 0.0  155.924857 -84.764531 -0.035  155.850644 -84.721683 -0.035  155.85064399999996 -84.72168300000003 0.0
Q Nodo003  155.767853 -84.6995 0.0  155.767853 -84.6995 -0.035  146.532147 -84.6995 -0.035  146.532147 -84.6995 0.0
Q Nodo003  157.542644 -86.380593 0.0  157.542644 -86.380593 -0.035  155.924857 -84.764531 -0.035  155.9248570000007 -84.7645309999993 0.0
Q Nodo003  146.532147 -84.6995 0.0  146.532147 -84.6995 -0.035  146.449356 -84.721683 -0.035  146.449356 -84.72168300000003 0.0
Q Nodo003  157.600835 -86.3995 0.0  157.600835 -86.3995 -0.035  157.542644 -86.380593 -0.035  157.542644 -86.38059300000002 0.0
Q Nodo003  146.449356 -84.721683 0.0  146.449356 -84.721683 -0.035  146.375142 -84.764531 -0.035  146.37514199999998 -84.76453099999996 0.0
Q Nodo003  157.66589 -86.3995 0.0  157.66589 -86.3995 -0.035  157.600835 -86.3995 -0.035  157.600835 -86.3995 0.0
Q Nodo003  146.375142 -84.764531 0.0  146.375142 -84.764531 -0.035  144.389531 -86.750142 -0.035  144.389531 -86.75014200000001 0.0
Q Nodo003  157.0995 -86.965892 0.0  157.0995 -86.965892 -0.035  157.66589 -86.3995 -0.035  157.6658900000009 -86.39949999999304 0.0
Q Nodo003  144.389531 -86.750142 0.0  144.389531 -86.750142 -0.035  144.346682 -86.824359 -0.035  144.346682 -86.82435899999999 0.0
Q Nodo003  157.098281 -86.885348 0.0  157.098281 -86.885348 -0.035  157.0995 -86.965892 -0.035  157.0995 -86.965892 0.0
Q Nodo003  144.346682 -86.824359 0.0  144.346682 -86.824359 -0.035  144.3245 -86.907147 -0.035  144.32449999999997 -86.907147 0.0
Q Nodo003  157.070504 -86.830831 0.0  157.070504 -86.830831 -0.035  157.098281 -86.885348 -0.035  157.098281 -86.885348 0.0
Q Nodo003  144.3245 -86.907147 0.0  144.3245 -86.907147 -0.035  144.3245 -92.374165 -0.035  144.3245 -92.374165 0.0
Q Nodo003  155.607356 -85.369407 0.0  155.607356 -85.369407 -0.035  157.070504 -86.830831 -0.035  157.07050400000034 -86.83083099999965 0.0
Q Nodo003  144.3245 -92.374165 0.0  144.3245 -92.374165 -0.035  144.305593 -92.432356 -0.035  144.30559300000002 -92.432356 0.0
Q Nodo003  155.549165 -85.3505 0.0  155.549165 -85.3505 -0.035  155.607356 -85.369407 -0.035  155.607356 -85.369407 0.0
Q Nodo003  144.305593 -92.432356 0.0  144.305593 -92.432356 -0.035  138.439531 -98.300142 -0.035  138.43953099999743 -98.30014199999744 0.0
Q Nodo003  146.735348 -85.351719 0.0  146.735348 -85.351719 -0.035  155.549165 -85.3505 -0.035  155.549165 -85.3505 0.0
Q Nodo003  138.439531 -98.300142 0.0  138.439531 -98.300142 -0.035  138.396682 -98.374361 -0.035  138.396682 -98.374361 0.0
Q Nodo003  146.680831 -85.379496 0.0  146.680831 -85.379496 -0.035  146.735348 -85.351719 -0.035  146.735348 -85.351719 0.0
Q Nodo003  138.396682 -98.374361 0.0  138.396682 -98.374361 -0.035  138.3745 -98.457147 -0.035  138.37449999999998 -98.457147 0.0
Q Nodo003  144.994407 -87.067644 0.0  144.994407 -87.067644 -0.035  146.680831 -85.379496 -0.035  146.6808309999994 -85.37949599999938 0.0
Q Nodo003  138.3745 -98.457147 0.0  138.3745 -98.457147 -0.035  138.3745 -101.476678 -0.035  138.3745 -101.476678 0.0
Q Nodo003  144.9755 -87.125835 0.0  144.9755 -87.125835 -0.035  144.994407 -87.067644 -0.035  144.994407 -87.067644 0.0
Q Nodo003  138.3745 -101.476678 0.0  138.3745 -101.476678 -0.035  138.355593 -101.534869 -0.035  138.35559300000003 -101.534869 0.0
Q Nodo003  144.975501 -92.592853 0.0  144.975501 -92.592853 -0.035  144.9755 -87.125835 -0.035  144.9755 -87.125835 0.0
Q Nodo003  138.355593 -101.534869 0.0  138.355593 -101.534869 -0.035  138.2995 -101.592684 -0.035  138.2995 -101.592684 0.0
Q Nodo003  144.953318 -92.675639 0.0  144.953318 -92.675639 -0.035  144.975501 -92.592853 -0.035  144.97550099999998 -92.59285299999999 0.0
Q Nodo003  138.2995 -101.592684 0.0  138.2995 -101.592684 -0.035  138.299496 -102.207309 -0.035  138.29949600000327 -102.20730899999748 0.0
Q Nodo003  144.910465 -92.749862 0.0  144.910465 -92.749862 -0.035  144.953318 -92.675639 -0.035  144.953318 -92.675639 0.0
Q Nodo003  138.299496 -102.207309 0.0  138.299496 -102.207309 -0.035  138.345505 -102.253319 -0.035  138.345505 -102.25331900000002 0.0
Q Nodo003  139.044407 -98.617642 0.0  139.044407 -98.617642 -0.035  144.910465 -92.749862 -0.035  144.9104649999998 -92.74986199999978 0.0
Q Nodo003  138.345505 -102.253319 0.0  138.345505 -102.253319 -0.035  138.373281 -102.307834 -0.035  138.373281 -102.307834 0.0
Q Nodo003  139.0255 -98.675833 0.0  139.0255 -98.675833 -0.035  139.044407 -98.617642 -0.035  139.04440699999998 -98.617642 0.0
Q Nodo003  138.373281 -102.307834 0.0  138.373281 -102.307834 -0.035  138.3745 -109.995106 -0.035  138.3745 -109.995106 0.0
Q Nodo003  139.026719 -101.492164 0.0  139.026719 -101.492164 -0.035  139.0255 -98.675833 -0.035  139.0255 -98.675833 0.0
Q Nodo003  138.3745 -109.995106 0.0  138.3745 -109.995106 -0.035  138.355593 -110.053297 -0.035  138.35559300000003 -110.053297 0.0
Q Nodo003  139.054496 -101.546681 0.0  139.054496 -101.546681 -0.035  139.026719 -101.492164 -0.035  139.02671899999999 -101.49216400000002 0.0
Q Nodo003  138.355593 -110.053297 0.0  138.355593 -110.053297 -0.035  138.325001 -110.080842 -0.035  138.325001 -110.08084200000002 0.0
Q Nodo003  139.100499 -101.592684 0.0  139.100499 -101.592684 -0.035  139.054496 -101.546681 -0.035  139.05449599999997 -101.54668100000004 0.0
Q Nodo003  138.325001 -110.080842 0.0  138.325001 -110.080842 -0.035  138.292688 -110.099498 -0.035  138.292688 -110.09949799999998 0.0
Q Nodo003  139.1005 -102.207314 0.0  139.1005 -102.207314 -0.035  139.100499 -101.592684 -0.035  139.10049900000172 -101.59268399999868 0.0
Q Nodo003  138.292688 -110.099498 0.0  138.292688 -110.099498 -0.035  139.066392 -110.306814 -0.035  139.06639200002436 -110.30681399998991 0.0
Q Nodo003  139.044407 -102.26513 0.0  139.044407 -102.26513 -0.035  139.1005 -102.207314 -0.035  139.1005 -102.20731399999998 0.0
Q Nodo003  139.066392 -110.306814 0.0  139.066392 -110.306814 -0.035  139.038763 -110.258958 -0.035  139.03876299999996 -110.25895800000002 0.0
Q Nodo003  139.0255 -102.323321 0.0  139.0255 -102.323321 -0.035  139.044407 -102.26513 -0.035  139.04440699999998 -102.26513 0.0
Q Nodo003  139.038763 -110.258958 0.0  139.038763 -110.258958 -0.035  139.0255 -110.209459 -0.035  139.0255 -110.209459 0.0
Q Nodo003  139.0255 -110.209459 0.0  139.0255 -110.209459 -0.035  139.0255 -102.323321 -0.035  139.0255 -102.323321 0.0
T Nodo003  138.2 -93.35 0.0  138.2 -93.35 0.0  138.2 -93.35 1.51
T Nodo003  131.12 -98.53 0.0  131.12 -98.53 0.0  131.12 -98.53 1.51
Q Nodo003  129.185 -97.84 -0.035  129.185 -97.340001 -0.035  129.185 -97.340001 0.0  129.185 -97.84 0.0
Q Nodo003  129.482824 -97.34 0.0  129.482824 -97.34 -0.035  129.185 -97.340001 -0.035  129.185 -97.340001 0.0
Q Nodo003  129.54237 -97.346401 0.0  129.54237 -97.346401 -0.035  129.482824 -97.34 -0.035  129.482824 -97.34000000000002 0.0
Q Nodo003  129.928596 -97.732618 0.0  129.928596 -97.732618 -0.035  129.54237 -97.346401 -0.035  129.54237000000077 -97.34640099999652 0.0
Q Nodo003  129.935 -97.792175 0.0  129.935 -97.792175 -0.035  129.928596 -97.732618 -0.035  129.928596 -97.732618 0.0
Q Nodo003  129.935 -98.089999 0.0  129.935 -98.089999 -0.035  129.935 -97.792175 -0.035  129.935 -97.792175 0.0
Q Nodo003  129.935 -98.089999 -0.035  129.435 -98.089999 -0.035  129.435 -98.089999 0.0  129.935 -98.089999 0.0
Q Nodo003  129.435 -98.59000066666623 -0.035  129.934999 -98.59 -0.035  129.934999 -98.59 0.0  129.435 -98.59000066666 0.0
Q Nodo003  129.935 -98.887824 0.0  129.935 -98.887824 -0.035  129.934999 -98.59 -0.035  129.934999 -98.59 0.0
Q Nodo003  129.928598 -98.94737 0.0  129.928598 -98.94737 -0.035  129.935 -98.887824 -0.035  129.935 -98.887824 0.0
Q Nodo003  129.542381 -99.333596 0.0  129.542381 -99.333596 -0.035  129.928598 -98.94737 -0.035  129.92859799999394 -98.94736999999868 0.0
Q Nodo003  129.482824 -99.34 0.0  129.482824 -99.34 -0.035  129.542381 -99.333596 -0.035  129.542381 -99.333596 0.0
Q Nodo003  129.185 -99.339999 0.0  129.185 -99.339999 -0.035  129.482824 -99.34 -0.035  129.482824 -99.34 0.0
Q Nodo003  129.185 -99.339999 -0.035  129.185 -98.84 -0.035  129.185 -98.84 0.0  129.185 -99.339999 0.0
Q Nodo003  128.685 -98.84 -0.035  128.685 -99.339999 -0.035  128.685 -99.339999 0.0  128.685 -98.84 0.0
Q Nodo003  128.387176 -99.34 0.0  128.387176 -99.34 -0.035  128.685 -99.339999 -0.035  128.685 -99.339999 0.0
Q Nodo003  128.327629 -99.333598 0.0  128.327629 -99.333598 -0.035  128.387176 -99.34 -0.035  128.387176 -99.34 0.0
Q Nodo003  127.99021 -99.080171 0.0  127.99021 -99.080171 -0.035  128.327629 -99.333598 -0.035  128.32762900000196 -99.33359799999099 0.0
Q Nodo003  127.969148 -99.059407 0.0  127.969148 -99.059407 -0.035  127.99021 -99.080171 -0.035  127.99021000000002 -99.08017099999999 0.0
Q Nodo003  127.910957 -99.0405 0.0  127.910957 -99.0405 -0.035  127.969148 -99.059407 -0.035  127.969148 -99.059407 0.0
Q Nodo003  127.145253 -99.0405 0.0  127.145253 -99.0405 -0.035  127.910957 -99.0405 -0.035  127.910957 -99.0405 0.0
Q Nodo003  127.086769 -99.028867 0.0  127.086769 -99.028867 -0.035  127.145253 -99.0405 -0.035  127.145253 -99.04049999999998 0.0
Q Nodo003  127.020448 -98.984552 0.0  127.020448 -98.984552 -0.035  127.086769 -99.028867 -0.035  127.08676900000002 -99.02886699999998 0.0
Q Nodo003  126.976134 -98.918233 0.0  126.976134 -98.918233 -0.035  127.020448 -98.984552 -0.035  127.020448 -98.984552 0.0
Q Nodo003  126.9645 -98.859746 0.0  126.9645 -98.859746 -0.035  126.976134 -98.918233 -0.035  126.97613399999999 -98.918233 0.0
Q Nodo003  126.9645 -97.820253 0.0  126.9645 -97.820253 -0.035  126.9645 -98.859746 -0.035  126.9645 -98.859746 0.0
Q Nodo003  126.976132 -97.761772 0.0  126.976132 -97.761772 -0.035  126.9645 -97.820253 -0.035  126.96449999999999 -97.820253 0.0
Q Nodo003  127.020445 -97.695451 0.0  127.020445 -97.695451 -0.035  126.976132 -97.761772 -0.035  126.97613199999999 -97.76177199999998 0.0
Q Nodo003  127.086766 -97.651134 0.0  127.086766 -97.651134 -0.035  127.020445 -97.695451 -0.035  127.02044499999998 -97.69545099999998 0.0
Q Nodo003  127.145241 -97.639501 0.0  127.145241 -97.639501 -0.035  127.086766 -97.651134 -0.035  127.086766 -97.65113399999998 0.0
Q Nodo003  127.910957 -97.6395 0.0  127.910957 -97.6395 -0.035  127.145241 -97.639501 -0.035  127.145241 -97.639501 0.0
Q Nodo003  127.940201 -97.635082 0.0  127.940201 -97.635082 -0.035  127.910957 -97.6395 -0.035  127.910957 -97.63949999999998 0.0
Q Nodo003  127.99021 -97.599829 0.0  127.99021 -97.599829 -0.035  127.940201 -97.635082 -0.035  127.940201 -97.63508199999998 0.0
Q Nodo003  128.327618 -97.346403 0.0  128.327618 -97.346403 -0.035  127.99021 -97.599829 -0.035  127.99020999999885 -97.59982899999937 0.0
Q Nodo003  128.387176 -97.34 0.0  128.387176 -97.34 -0.035  128.327618 -97.346403 -0.035  128.327618 -97.34640300000001 0.0
Q Nodo003  128.684999 -97.34 0.0  128.684999 -97.34 -0.035  128.387176 -97.34 -0.035  128.387176 -97.34 0.0
Q Nodo003  128.684999 -97.34 -0.035  128.6849996326 -97.84 -0.035  128.6849996326 -97.84 0.0  128.684999 -97.34 0.0
T Nodo003  149.64 -87.53 0.0  149.64 -87.53 0.0  149.64 -87.53 1.51
T Nodo003  144.597554 -85.287298 0.0  144.597554 -85.287298 0.0  144.597554 -85.287298 1.51
Q Nodo003  140.7 -86.514999 -0.035  140.2 -86.514999 -0.035  140.2 -86.514999 0.0  140.7 -86.514999 0.0
Q Nodo003  140.2 -86.217175 0.0  140.2 -86.217175 -0.035  140.2 -86.514999 -0.035  140.2 -86.514999 0.0
Q Nodo003  140.206401 -86.157629 0.0  140.206401 -86.157629 -0.035  140.2 -86.217175 -0.035  140.19999999999996 -86.217175 0.0
Q Nodo003  140.592618 -85.771403 0.0  140.592618 -85.771403 -0.035  140.206401 -86.157629 -0.035  140.20640099999446 -86.15762899999879 0.0
Q Nodo003  140.652176 -85.765 0.0  140.652176 -85.765 -0.035  140.592618 -85.771403 -0.035  140.592618 -85.771403 0.0
Q Nodo003  140.949999 -85.765 0.0  140.949999 -85.765 -0.035  140.652176 -85.765 -0.035  140.652176 -85.765 0.0
Q Nodo003  140.949999 -85.765 -0.035  140.94999966666 -86.265 -0.035  140.94999966666 -86.265 0.0  140.949999 -85.765 0.0
Q Nodo003  141.45 -86.265 -0.035  141.45 -85.765001 -0.035  141.45 -85.765001 0.0  141.45 -86.265 0.0
Q Nodo003  141.747824 -85.765 0.0  141.747824 -85.765 -0.035  141.45 -85.765001 -0.035  141.45 -85.765001 0.0
Q Nodo003  141.80737 -85.771401 0.0  141.80737 -85.771401 -0.035  141.747824 -85.765 -0.035  141.747824 -85.76500000000001 0.0
Q Nodo003  142.193596 -86.157618 0.0  142.193596 -86.157618 -0.035  141.80737 -85.771401 -0.035  141.80737000000076 -85.77140099999652 0.0
Q Nodo003  142.2 -86.217175 0.0  142.2 -86.217175 -0.035  142.193596 -86.157618 -0.035  142.19359600000004 -86.157618 0.0
Q Nodo003  142.2 -86.514999 0.0  142.2 -86.514999 -0.035  142.2 -86.217175 -0.035  142.2 -86.217175 0.0
Q Nodo003  142.2 -86.514999 -0.035  141.7 -86.514999 -0.035  141.7 -86.514999 0.0  142.2 -86.514999 0.0
Q Nodo003  141.7 -87.015 -0.035  142.199999 -87.015 -0.035  142.199999 -87.015 0.0  141.7 -87.015 0.0
Q Nodo003  142.2 -87.312824 0.0  142.2 -87.312824 -0.035  142.199999 -87.015 -0.035  142.199999 -87.015 0.0
Q Nodo003  142.193598 -87.37237 0.0  142.193598 -87.37237 -0.035  142.2 -87.312824 -0.035  142.20000000000002 -87.312824 0.0
Q Nodo003  141.940171 -87.709788 0.0  141.940171 -87.709788 -0.035  142.193598 -87.37237 -0.035  142.19359799999143 -87.37236999999813 0.0
Q Nodo003  141.919407 -87.73085 0.0  141.919407 -87.73085 -0.035  141.940171 -87.709788 -0.035  141.940171 -87.709788 0.0
Q Nodo003  141.9005 -87.789041 0.0  141.9005 -87.789041 -0.035  141.919407 -87.73085 -0.035  141.91940699999998 -87.73085 0.0
Q Nodo003  141.9005 -88.554748 0.0  141.9005 -88.554748 -0.035  141.9005 -87.789041 -0.035  141.9005 -87.789041 0.0
Q Nodo003  141.888867 -88.613231 0.0  141.888867 -88.613231 -0.035  141.9005 -88.554748 -0.035  141.9005 -88.554748 0.0
Q Nodo003  141.844552 -88.679552 0.0  141.844552 -88.679552 -0.035  141.888867 -88.613231 -0.035  141.88886699999998 -88.61323099999998 0.0
Q Nodo003  141.778231 -88.723867 0.0  141.778231 -88.723867 -0.035  141.844552 -88.679552 -0.035  141.84455200000002 -88.67955200000003 0.0
Q Nodo003  141.719748 -88.7355 0.0  141.719748 -88.7355 -0.035  141.778231 -88.723867 -0.035  141.778231 -88.72386700000003 0.0
Q Nodo003  140.680253 -88.7355 0.0  140.680253 -88.7355 -0.035  141.719748 -88.7355 -0.035  141.719748 -88.7355 0.0
Q Nodo003  140.621769 -88.723867 0.0  140.621769 -88.723867 -0.035  140.680253 -88.7355 -0.035  140.680253 -88.73550000000003 0.0
Q Nodo003  140.555448 -88.679552 0.0  140.555448 -88.679552 -0.035  140.621769 -88.723867 -0.035  140.62176900000003 -88.72386699999997 0.0
Q Nodo003  140.511134 -88.613233 0.0  140.511134 -88.613233 -0.035  140.555448 -88.679552 -0.035  140.555448 -88.679552 0.0
Q Nodo003  140.499501 -88.554758 0.0  140.499501 -88.554758 -0.035  140.511134 -88.613233 -0.035  140.511134 -88.613233 0.0
Q Nodo003  140.4995 -87.789041 0.0  140.4995 -87.789041 -0.035  140.499501 -88.554758 -0.035  140.499501 -88.554758 0.0
Q Nodo003  140.495082 -87.759796 0.0  140.495082 -87.759796 -0.035  140.4995 -87.789041 -0.035  140.49950000000004 -87.789041 0.0
Q Nodo003  140.459829 -87.709788 0.0  140.459829 -87.709788 -0.035  140.495082 -87.759796 -0.035  140.495082 -87.75979600000001 0.0
Q Nodo003  140.206401 -87.37237 0.0  140.206401 -87.37237 -0.035  140.459829 -87.709788 -0.035  140.4598289999988 -87.70978800000228 0.0
Q Nodo003  140.199999 -87.312824 0.0  140.199999 -87.312824 -0.035  140.206401 -87.37237 -0.035  140.206401 -87.37237 0.0
Q Nodo003  140.2 -87.015001 0.0  140.2 -87.015001 -0.035  140.199999 -87.312824 -0.035  140.199999 -87.312824 0.0
Q Nodo003  140.2 -87.015001 -0.035  140.7 -87.01500036739 -0.035  140.7 -87.01500036739 0.0  140.2 -87.015001 0.0
T Nodo003  149.62 -77.8 0.0  149.62 -77.8 0.0  149.62 -77.8 1.51
T Nodo003  143.5 -80.62 0.0  143.5 -80.62 0.0  143.5 -80.62 1.51
Q Nodo003  140.7 -77.179999 -0.035  140.2 -77.179999 -0.035  140.2 -77.179999 0.0  140.7 -77.179999 0.0
Q Nodo003  140.2 -76.882175 0.0  140.2 -76.882175 -0.035  140.2 -77.179999 -0.035  140.2 -77.179999 0.0
Q Nodo003  140.206401 -76.822629 0.0  140.206401 -76.822629 -0.035  140.2 -76.882175 -0.035  140.19999999999996 -76.882175 0.0
Q Nodo003  140.592618 -76.436403 0.0  140.592618 -76.436403 -0.035  140.206401 -76.822629 -0.035  140.20640099999446 -76.8226289999988 0.0
Q Nodo003  140.652176 -76.43 0.0  140.652176 -76.43 -0.035  140.592618 -76.436403 -0.035  140.592618 -76.43640300000001 0.0
Q Nodo003  140.949999 -76.43 0.0  140.949999 -76.43 -0.035  140.652176 -76.43 -0.035  140.652176 -76.43 0.0
Q Nodo003  140.949999 -76.43 -0.035  140.94999966666 -76.93 -0.035  140.94999966666 -76.93 0.0  140.949999 -76.43 0.0
Q Nodo003  141.45 -76.93 -0.035  141.45 -76.430001 -0.035  141.45 -76.430001 0.0  141.45 -76.93 0.0
Q Nodo003  141.747824 -76.43 0.0  141.747824 -76.43 -0.035  141.45 -76.430001 -0.035  141.45 -76.430001 0.0
Q Nodo003  141.80737 -76.436401 0.0  141.80737 -76.436401 -0.035  141.747824 -76.43 -0.035  141.747824 -76.43000000000002 0.0
Q Nodo003  142.193596 -76.822618 0.0  142.193596 -76.822618 -0.035  141.80737 -76.436401 -0.035  141.80737000000076 -76.43640099999652 0.0
Q Nodo003  142.2 -76.882175 0.0  142.2 -76.882175 -0.035  142.193596 -76.822618 -0.035  142.19359600000004 -76.822618 0.0
Q Nodo003  142.2 -77.179999 0.0  142.2 -77.179999 -0.035  142.2 -76.882175 -0.035  142.2 -76.882175 0.0
Q Nodo003  142.2 -77.179999 -0.035  141.7 -77.179999 -0.035  141.7 -77.179999 0.0  142.2 -77.179999 0.0
Q Nodo003  141.7 -77.68 -0.035  142.199999 -77.68 -0.035  142.199999 -77.68 0.0  141.7 -77.68 0.0
Q Nodo003  142.2 -77.977824 0.0  142.2 -77.977824 -0.035  142.199999 -77.68 -0.035  142.199999 -77.68 0.0
Q Nodo003  142.193598 -78.03737 0.0  142.193598 -78.03737 -0.035  142.2 -77.977824 -0.035  142.20000000000002 -77.977824 0.0
Q Nodo003  141.940171 -78.374788 0.0  141.940171 -78.374788 -0.035  142.193598 -78.03737 -0.035  142.19359799999143 -78.03736999999812 0.0
Q Nodo003  141.919407 -78.39585 0.0  141.919407 -78.39585 -0.035  141.940171 -78.374788 -0.035  141.940171 -78.374788 0.0
Q Nodo003  141.9005 -78.454041 0.0  141.9005 -78.454041 -0.035  141.919407 -78.39585 -0.035  141.91940699999998 -78.39585 0.0
Q Nodo003  141.9005 -79.219748 0.0  141.9005 -79.219748 -0.035  141.9005 -78.454041 -0.035  141.9005 -78.454041 0.0
Q Nodo003  141.888867 -79.278231 0.0  141.888867 -79.278231 -0.035  141.9005 -79.219748 -0.035  141.9005 -79.219748 0.0
Q Nodo003  141.871077 -79.331116 0.0  141.871077 -79.331116 -0.035  141.888867 -79.278231 -0.035  141.88886700000003 -79.27823100000002 0.0
Q Nodo003  141.9005 -79.450252 0.0  141.9005 -79.450252 -0.035  141.871077 -79.331116 -0.035  141.87107699999999 -79.33111600000001 0.0
Q Nodo003  141.9005 -80.489748 0.0  141.9005 -80.489748 -0.035  141.9005 -79.450252 -0.035  141.9005 -79.450252 0.0
Q Nodo003  141.888867 -80.548231 0.0  141.888867 -80.548231 -0.035  141.9005 -80.489748 -0.035  141.9005 -80.489748 0.0
Q Nodo003  141.871077 -80.601116 0.0  141.871077 -80.601116 -0.035  141.888867 -80.548231 -0.035  141.888867 -80.548231 0.0
Q Nodo003  141.9005 -80.720252 0.0  141.9005 -80.720252 -0.035  141.871077 -80.601116 -0.035  141.87107699999999 -80.60111600000002 0.0
Q Nodo003  141.9005 -81.759748 0.0  141.9005 -81.759748 -0.035  141.9005 -80.720252 -0.035  141.9005 -80.720252 0.0
Q Nodo003  141.888867 -81.818231 0.0  141.888867 -81.818231 -0.035  141.9005 -81.759748 -0.035  141.9005 -81.759748 0.0
Q Nodo003  141.844552 -81.884552 0.0  141.844552 -81.884552 -0.035  141.888867 -81.818231 -0.035  141.88886699999998 -81.81823099999998 0.0
Q Nodo003  141.778231 -81.928867 0.0  141.778231 -81.928867 -0.035  141.844552 -81.884552 -0.035  141.84455200000002 -81.88455200000003 0.0
Q Nodo003  141.719748 -81.9405 0.0  141.719748 -81.9405 -0.035  141.778231 -81.928867 -0.035  141.778231 -81.92886700000003 0.0
Q Nodo003  140.680253 -81.9405 0.0  140.680253 -81.9405 -0.035  141.719748 -81.9405 -0.035  141.719748 -81.9405 0.0
Q Nodo003  140.621769 -81.928867 0.0  140.621769 -81.928867 -0.035  140.680253 -81.9405 -0.035  140.680253 -81.94050000000003 0.0
Q Nodo003  140.555448 -81.884552 0.0  140.555448 -81.884552 -0.035  140.621769 -81.928867 -0.035  140.62176900000003 -81.92886699999997 0.0
Q Nodo003  140.511134 -81.818233 0.0  140.511134 -81.818233 -0.035  140.555448 -81.884552 -0.035  140.55544799999998 -81.88455200000001 0.0
Q Nodo003  140.499501 -81.759758 0.0  140.499501 -81.759758 -0.035  140.511134 -81.818233 -0.035  140.511134 -81.818233 0.0
Q Nodo003  140.4995 -80.720253 0.0  140.4995 -80.720253 -0.035  140.499501 -81.759758 -0.035  140.499501 -81.759758 0.0
Q Nodo003  140.511132 -80.661772 0.0  140.511132 -80.661772 -0.035  140.4995 -80.720253 -0.035  140.49950000000004 -80.720253 0.0
Q Nodo003  140.528922 -80.608889 0.0  140.528922 -80.608889 -0.035  140.511132 -80.661772 -0.035  140.511132 -80.661772 0.0
Q Nodo003  140.499501 -80.489758 0.0  140.499501 -80.489758 -0.035  140.528922 -80.608889 -0.035  140.528922 -80.608889 0.0
Q Nodo003  140.4995 -79.450253 0.0  140.4995 -79.450253 -0.035  140.499501 -80.489758 -0.035  140.499501 -80.489758 0.0
Q Nodo003  140.511132 -79.391772 0.0  140.511132 -79.391772 -0.035  140.4995 -79.450253 -0.035  140.49950000000004 -79.450253 0.0
Q Nodo003  140.528922 -79.338889 0.0  140.528922 -79.338889 -0.035  140.511132 -79.391772 -0.035  140.511132 -79.391772 0.0
Q Nodo003  140.499501 -79.219758 0.0  140.499501 -79.219758 -0.035  140.528922 -79.338889 -0.035  140.528922 -79.338889 0.0
Q Nodo003  140.4995 -78.454041 0.0  140.4995 -78.454041 -0.035  140.499501 -79.219758 -0.035  140.499501 -79.219758 0.0
Q Nodo003  140.495082 -78.424796 0.0  140.495082 -78.424796 -0.035  140.4995 -78.454041 -0.035  140.49950000000004 -78.454041 0.0
Q Nodo003  140.459829 -78.374788 0.0  140.459829 -78.374788 -0.035  140.495082 -78.424796 -0.035  140.495082 -78.424796 0.0
Q Nodo003  140.206401 -78.03737 0.0  140.206401 -78.03737 -0.035  140.459829 -78.374788 -0.035  140.45982899999876 -78.37478800000228 0.0
Q Nodo003  140.199999 -77.977824 0.0  140.199999 -77.977824 -0.035  140.206401 -78.03737 -0.035  140.206401 -78.03737 0.0
Q Nodo003  140.2 -77.680001 0.0  140.2 -77.680001 -0.035  140.199999 -77.977824 -0.035  140.199999 -77.977824 0.0
Q Nodo003  140.2 -77.680001 -0.035  140.7 -77.68000036739 -0.035  140.7 -77.68000036739 0.0  140.2 -77.680001 0.0
Q Nodo003  175.95 -86.812502 1.51  175.95 -86.812502 1.545  175.95 -87.622388 1.545  175.95 -87.622388 1.51
Q Nodo003  125.249563 -75.5194 1.51  125.249563 -75.5194 1.545  125.307743 -75.5005 1.545  125.30774300000002 -75.50050000000003 1.51
Q Nodo003  125.307743 -75.5005 1.51  125.307743 -75.5005 1.545  154.951613 -75.5005 1.545  154.951613 -75.5005 1.51
Q Nodo003  154.951613 -75.5005 1.51  154.951613 -75.5005 1.545  154.982203 -75.505345 1.545  154.982203 -75.50534499999999 1.51
Q Nodo003  154.982203 -75.505345 1.51  154.982203 -75.505345 1.545  155.0399 -75.659984 1.545  155.03989999999123 -75.65998399999373 1.51
Q Nodo003  155.0399 -75.659984 1.51  155.0399 -75.659984 1.545  154.947206 -75.787117 1.545  154.94720600000002 -75.78711700000002 1.51
Q Nodo003  154.947206 -75.787117 1.51  154.947206 -75.787117 1.545  154.902352 -75.915306 1.545  154.90235200000006 -75.91530600000003 1.51
Q Nodo003  154.902352 -75.915306 1.51  154.902352 -75.915306 1.545  154.902356 -78.084708 1.545  154.902356 -78.084708 1.51
Q Nodo003  154.902356 -78.084708 1.51  155.265301 -78.447646 1.51  155.26530100000056 -78.44764599999698 1.545  154.902356 -78.084708 1.545
Q Nodo003  155.265301 -78.447646 1.51  155.265301 -78.447646 1.545  156.734699 -78.447646 1.545  156.734699 -78.447646 1.51
Q Nodo003  156.734699 -78.447646 1.51  157.052793 -78.212882 1.51  157.05279299999202 -78.21288199999577 1.545  156.734699 -78.447646 1.545
Q Nodo003  157.052793 -78.212882 1.51  157.052793 -78.212882 1.545  157.1005 -78.079156 1.545  157.10049999999995 -78.07915599999998 1.51
Q Nodo003  157.1005 -78.079156 1.51  157.1005 -78.079156 1.545  157.1005 -77.361801 1.545  157.1005 -77.361801 1.51
Q Nodo003  157.1005 -77.361801 1.51  157.1005 -77.361801 1.545  157.184511 -77.24046 1.545  157.1845109999966 -77.24045999999181 1.51
Q Nodo003  157.184511 -77.24046 1.51  157.184511 -77.24046 1.545  157.624388 -76.800583 1.545  157.624388 -76.80058299999999 1.51
Q Nodo003  157.624388 -76.800583 1.51  157.624388 -76.800583 1.545  157.67121 -76.771288 1.545  157.67121 -76.771288 1.51
Q Nodo003  157.67121 -76.771288 1.51  157.67121 -76.771288 1.545  157.716151 -76.7605 1.545  157.716151 -76.76050000000002 1.51
Q Nodo003  157.716151 -76.7605 1.51  157.716151 -76.7605 1.545  158.223429 -76.7605 1.545  158.223429 -76.7605 1.51
Q Nodo003  158.223429 -76.7605 1.51  158.223429 -76.7605 1.545  158.270325 -76.770643 1.545  158.270325 -76.77064299999999 1.51
Q Nodo003  158.270325 -76.770643 1.51  158.270325 -76.770643 1.545  158.320245 -76.806728 1.545  158.320245 -76.806728 1.51
Q Nodo003  158.320245 -76.806728 1.51  158.320245 -76.806728 1.545  158.337986 -76.836344 1.545  158.337986 -76.836344 1.51
Q Nodo003  158.337986 -76.836344 1.51  158.337986 -76.836344 1.545  158.423653 -76.922012 1.545  158.42365299999997 -76.92201200000002 1.51
Q Nodo003  158.423653 -76.922012 1.51  158.423653 -76.922012 1.545  158.532491 -76.97522 1.545  158.532491 -76.97521999999996 1.51
Q Nodo003  158.532491 -76.97522 1.51  158.532491 -76.97522 1.545  158.603051 -76.9855 1.545  158.603051 -76.98549999999999 1.51
Q Nodo003  158.603051 -76.9855 1.51  158.603051 -76.9855 1.545  160.321948 -76.985499 1.545  160.321948 -76.985499 1.51
Q Nodo003  160.321948 -76.985499 1.51  160.587012 -76.836347 1.51  160.5870119999919 -76.83634699999438 1.545  160.321948 -76.985499 1.545
Q Nodo003  160.587012 -76.836347 1.51  160.587012 -76.836347 1.545  160.64022 -76.727509 1.545  160.64021999999997 -76.72750899999998 1.51
Q Nodo003  160.64022 -76.727509 1.51  160.64022 -76.727509 1.545  160.6505 -76.656949 1.545  160.6505 -76.656949 1.51
Q Nodo003  160.6505 -76.656949 1.51  160.6505 -76.656949 1.545  160.650499 -76.263052 1.545  160.650499 -76.263052 1.51
Q Nodo003  160.650499 -76.263052 1.51  160.650499 -76.263052 1.545  160.640218 -76.192485 1.545  160.640218 -76.192485 1.51
Q Nodo003  160.640218 -76.192485 1.51  160.392509 -75.94478 1.51  160.39250900000184 -75.94477999999377 1.545  160.640218 -76.192485 1.545
Q Nodo003  160.392509 -75.94478 1.51  160.392509 -75.94478 1.545  160.321946 -75.9345 1.545  160.321946 -75.93449999999999 1.51
Q Nodo003  160.321946 -75.9345 1.51  160.321946 -75.9345 1.545  158.603032 -75.934503 1.545  158.603032 -75.934503 1.51
Q Nodo003  158.603032 -75.934503 1.51  158.603032 -75.934503 1.545  158.532484 -75.944781 1.545  158.532484 -75.94478099999999 1.51
Q Nodo003  158.532484 -75.944781 1.51  158.532484 -75.944781 1.545  158.423653 -75.997988 1.545  158.423653 -75.99798800000002 1.51
Q Nodo003  158.423653 -75.997988 1.51  158.423653 -75.997988 1.545  158.334932 -76.089898 1.545  158.33493199999998 -76.08989799999998 1.51
Q Nodo003  158.334932 -76.089898 1.51  158.334932 -76.089898 1.545  158.30523 -76.127567 1.545  158.30523 -76.12756700000001 1.51
Q Nodo003  158.30523 -76.127567 1.51  158.30523 -76.127567 1.545  158.25088 -76.15657 1.545  158.25088 -76.15656999999999 1.51
Q Nodo003  158.25088 -76.15657 1.51  158.25088 -76.15657 1.545  157.500432 -76.1595 1.545  157.500432 -76.1595 1.51
Q Nodo003  157.500432 -76.1595 1.51  157.500432 -76.1595 1.545  157.424009 -76.179979 1.545  157.424009 -76.17997900000002 1.51
Q Nodo003  157.424009 -76.179979 1.51  157.424009 -76.179979 1.545  157.355487 -76.21954 1.545  157.355487 -76.21954000000001 1.51
Q Nodo003  157.355487 -76.21954 1.51  157.355487 -76.21954 1.545  157.280588 -76.294438 1.545  157.280588 -76.29443800000001 1.51
Q Nodo003  157.280588 -76.294438 1.51  157.280588 -76.294438 1.545  157.24579 -76.317607 1.545  157.24579 -76.317607 1.51
Q Nodo003  157.24579 -76.317607 1.51  157.24579 -76.317607 1.545  157.103234 -76.24691 1.545  157.10323399999848 -76.24691000000027 1.51
Q Nodo003  157.103234 -76.24691 1.51  157.103234 -76.24691 1.545  157.097646 -75.915301 1.545  157.097646 -75.915301 1.51
Q Nodo003  157.097646 -75.915301 1.51  157.097646 -75.915301 1.545  157.052793 -75.787118 1.545  157.05279300000007 -75.78711799999999 1.51
Q Nodo003  157.052793 -75.787118 1.51  157.052793 -75.787118 1.545  156.959914 -75.659573 1.545  156.95991400000003 -75.65957299999998 1.51
Q Nodo003  156.959914 -75.659573 1.51  156.959914 -75.659573 1.545  157.017962 -75.505229 1.545  157.01796199999964 -75.50522899999848 1.51
Q Nodo003  157.017962 -75.505229 1.51  157.017962 -75.505229 1.545  157.048196 -75.5005 1.545  157.048196 -75.5005 1.51
Q Nodo003  157.048196 -75.5005 1.51  157.048196 -75.5005 1.545  163.385871 -75.500651 1.545  163.385871 -75.500651 1.51
Q Nodo003  163.385871 -75.500651 1.51  163.385871 -75.500651 1.545  163.418838 -75.507892 1.545  163.418838 -75.507892 1.51
Q Nodo003  163.418838 -75.507892 1.51  163.418838 -75.507892 1.545  163.466582 -75.662655 1.545  163.46658199999294 -75.66265499999456 1.51
Q Nodo003  163.466582 -75.662655 1.51  163.466582 -75.662655 1.545  163.436164 -75.690096 1.545  163.436164 -75.690096 1.51
Q Nodo003  163.436164 -75.690096 1.51  163.056065 -76.177202 1.51  163.05606499999206 -76.17720199999854 1.545  163.436164 -75.690096 1.545
Q Nodo003  163.056065 -76.177202 1.51  163.056065 -76.177202 1.545  163.053084 -76.21 1.545  163.053084 -76.21 1.51
Q Nodo003  163.57540818648 -76.2102523800453 1.545  163.053084 -76.21 1.545  163.053084 -76.21 1.51  163.57540818649 -76.21025238004 1.51
Q Nodo003  163.55 -76.2975 1.545  163.55 -76.6225 1.545  163.55 -76.6225 1.55  163.55 -76.2975 1.55
Q Nodo003  163.053086 -76.71 1.545  163.57579565007 -76.7103534772 1.545  163.57579565009 -76.7103534772 1.51  163.053086 -76.71 1.51
Q Nodo003  163.053086 -76.71 1.51  163.053086 -76.71 1.545  163.056064 -76.742791 1.545  163.056064 -76.742791 1.51
Q Nodo003  163.056064 -76.742791 1.51  163.300926 -77.147841 1.51  163.30092600000145 -77.14784099999815 1.545  163.056064 -76.742791 1.545
Q Nodo003  163.300926 -77.147841 1.51  163.300926 -77.147841 1.545  163.377477 -77.194118 1.545  163.377477 -77.194118 1.51
Q Nodo003  163.377477 -77.194118 1.51  163.377477 -77.194118 1.545  163.409422 -77.223659 1.545  163.409422 -77.22365900000001 1.51
Q Nodo003  163.409422 -77.223659 1.51  163.409422 -77.223659 1.545  163.433175 -77.280046 1.545  163.43317500000003 -77.28004599999998 1.51
Q Nodo003  163.433175 -77.280046 1.51  163.433175 -77.280046 1.545  163.421057 -77.336508 1.545  163.42105699999996 -77.336508 1.51
Q Nodo003  163.421057 -77.336508 1.51  163.421057 -77.336508 1.545  163.35978 -77.462489 1.545  163.35978 -77.462489 1.51
Q Nodo003  163.35978 -77.462489 1.51  163.35978 -77.462489 1.545  163.3495 -77.533052 1.545  163.3495 -77.533052 1.51
Q Nodo003  163.3495 -77.533052 1.51  163.3495 -77.533052 1.545  163.3495 -77.926941 1.545  163.3495 -77.926941 1.51
Q Nodo003  163.3495 -77.926941 1.51  163.3495 -77.926941 1.545  163.359781 -77.997514 1.545  163.35978099999997 -77.997514 1.51
Q Nodo003  163.359781 -77.997514 1.51  163.607491 -78.24522 1.51  163.60749100000055 -78.24521999999821 1.545  163.359781 -77.997514 1.545
Q Nodo003  163.607491 -78.24522 1.51  163.607491 -78.24522 1.545  163.678051 -78.2555 1.545  163.678051 -78.2555 1.51
Q Nodo003  163.678051 -78.2555 1.51  163.678051 -78.2555 1.545  165.396948 -78.255499 1.545  165.396948 -78.255499 1.51
Q Nodo003  165.396948 -78.255499 1.51  165.662012 -78.106347 1.51  165.6620119999919 -78.10634699999437 1.545  165.396948 -78.255499 1.545
Q Nodo003  165.662012 -78.106347 1.51  165.662012 -78.106347 1.545  165.71522 -77.997509 1.545  165.71522 -77.997509 1.51
Q Nodo003  165.71522 -77.997509 1.51  165.71522 -77.997509 1.545  165.7255 -77.926949 1.545  165.72549999999998 -77.926949 1.51
Q Nodo003  165.7255 -77.926949 1.51  165.7255 -77.926949 1.545  165.725499 -77.533052 1.545  165.725499 -77.533052 1.51
Q Nodo003  165.725499 -77.533052 1.51  165.725499 -77.533052 1.545  165.715213 -77.462473 1.545  165.71521300000003 -77.462473 1.51
Q Nodo003  165.715213 -77.462473 1.51  165.715213 -77.462473 1.545  165.650917 -77.32856 1.545  165.6509169999999 -77.32856000000004 1.51
Q Nodo003  165.650917 -77.32856 1.51  165.650917 -77.32856 1.545  165.643499 -77.267826 1.545  165.64349899999996 -77.267826 1.51
Q Nodo003  165.643499 -77.267826 1.51  165.643499 -77.267826 1.545  165.674673 -77.212368 1.545  165.67467300000004 -77.21236800000001 1.51
Q Nodo003  165.674673 -77.212368 1.51  165.674673 -77.212368 1.545  165.738079 -77.169599 1.545  165.738079 -77.16959899999999 1.51
Q Nodo003  165.738079 -77.169599 1.51  165.738079 -77.169599 1.545  165.779753 -77.154885 1.545  165.779753 -77.154885 1.51
Q Nodo003  165.779753 -77.154885 1.51  165.779753 -77.154885 1.545  165.845531 -77.16208 1.545  165.845531 -77.16207999999997 1.51
Q Nodo003  165.845531 -77.16208 1.51  165.845531 -77.16208 1.545  165.891355 -77.201341 1.545  165.891355 -77.20134100000001 1.51
Q Nodo003  165.891355 -77.201341 1.51  165.891355 -77.201341 1.545  165.932682 -77.268342 1.545  165.932682 -77.268342 1.51
Q Nodo003  165.932682 -77.268342 1.51  166.372306 -77.539506 1.51  166.3723060000005 -77.53950599999764 1.545  165.932682 -77.268342 1.545
Q Nodo003  166.372306 -77.539506 1.51  166.372306 -77.539506 1.545  166.475005 -77.549999 1.545  166.475005 -77.54999899999999 1.51
Q Nodo003  166.475005 -77.549999 1.51  166.475005 -77.549999 1.545  166.75 -77.549998 1.545  166.75 -77.549998 1.51
Q Nodo003  166.74999880597207 -77.05 1.545  166.75 -77.549998 1.545  166.75 -77.549998 1.51  166.74999880597 -77.05 1.51
Q Nodo003  167.25 -77.549998 1.545  167.25 -77.05 1.545  167.25 -77.05 1.51  167.25 -77.549998 1.51
Q Nodo003  167.25 -77.549998 1.51  167.25 -77.549998 1.545  167.524994 -77.549999 1.545  167.524994 -77.549999 1.51
Q Nodo003  167.524994 -77.549999 1.51  167.524994 -77.549999 1.545  167.627699 -77.539504 1.545  167.627699 -77.539504 1.51
Q Nodo003  167.627699 -77.539504 1.51  168.214506 -76.952693 1.51  168.21450599999335 -76.95269299999862 1.545  167.627699 -77.539504 1.545
Q Nodo003  168.214506 -76.952693 1.51  168.214506 -76.952693 1.545  168.225 -76.849987 1.545  168.225 -76.849987 1.51
Q Nodo003  168.225 -76.849987 1.51  168.225 -76.849987 1.545  168.224998 -76.7125 1.545  168.224998 -76.7125 1.51
Q Nodo003  167.725 -76.71250051281952 1.545  168.224998 -76.7125 1.545  168.224998 -76.7125 1.51  167.725 -76.71250051282 1.51
Q Nodo003  168.224999 -76.212499 1.545  167.725 -76.21225740718 1.545  167.725 -76.21225740718 1.51  168.224999 -76.212499 1.51
Q Nodo003  168.224999 -76.212499 1.51  168.224999 -76.212499 1.545  168.224999 -76.075005 1.545  168.224999 -76.075005 1.51
Q Nodo003  168.224999 -76.075005 1.51  168.224999 -76.075005 1.545  168.214507 -75.972311 1.545  168.21450700000005 -75.972311 1.51
Q Nodo003  168.214507 -75.972311 1.51  168.214507 -75.972311 1.545  168.159356 -75.805875 1.545  168.15935599999997 -75.80587500000001 1.51
Q Nodo003  168.159356 -75.805875 1.51  168.159356 -75.805875 1.545  168.068321 -75.654587 1.545  168.06832100000003 -75.65458699999998 1.51
Q Nodo003  168.068321 -75.654587 1.51  168.068321 -75.654587 1.545  168.061248 -75.63547 1.545  168.061248 -75.63547 1.51
Q Nodo003  168.061248 -75.63547 1.51  168.061248 -75.63547 1.545  168.05879 -75.574336 1.545  168.05879 -75.574336 1.51
Q Nodo003  168.05879 -75.574336 1.51  168.05879 -75.574336 1.545  168.094503 -75.522035 1.545  168.09450299999997 -75.52203499999999 1.51
Q Nodo003  168.094503 -75.522035 1.51  168.094503 -75.522035 1.545  168.139749 -75.502036 1.545  168.139749 -75.50203600000002 1.51
Q Nodo003  168.139749 -75.502036 1.51  168.139749 -75.502036 1.545  169.998679 -75.5005 1.545  169.998679 -75.5005 1.51
Q Nodo003  169.998679 -75.5005 1.51  169.998679 -75.5005 1.545  170.042873 -75.510912 1.545  170.042873 -75.51091199999999 1.51
Q Nodo003  170.042873 -75.510912 1.51  170.042873 -75.510912 1.545  170.1037 -75.617704 1.545  170.10369999999816 -75.61770399999966 1.51
Q Nodo003  170.1037 -75.617704 1.51  170.1037 -75.617704 1.545  170.085894 -75.661225 1.545  170.08589400000002 -75.66122500000002 1.51
Q Nodo003  170.085894 -75.661225 1.51  170.085894 -75.661225 1.545  170.043677 -75.694512 1.545  170.043677 -75.694512 1.51
Q Nodo003  170.043677 -75.694512 1.51  170.043677 -75.694512 1.545  169.862632 -75.769503 1.545  169.862632 -75.76950299999999 1.51
Q Nodo003  169.862632 -75.769503 1.51  169.31 -76.596581 1.51  169.30999999999378 -76.59658099999939 1.545  169.862632 -75.769503 1.545
Q Nodo003  169.31 -76.596581 1.51  169.31 -76.596581 1.545  169.310001 -76.75 1.545  169.310001 -76.75 1.51
Q Nodo003  169.81 -76.75 1.545  169.310001 -76.75 1.545  169.310001 -76.75 1.51  169.81 -76.75 1.51
Q Nodo003  169.31 -77.250002 1.545  169.81 -77.2500004639 1.545  169.81 -77.2500004639 1.51  169.31 -77.250002 1.51
Q Nodo003  169.31 -77.250002 1.51  169.31 -77.250002 1.545  169.31 -77.403418 1.545  169.31 -77.403418 1.51
Q Nodo003  169.31 -77.403418 1.51  169.544405 -77.969329 1.51  169.54440500000118 -77.96932899999904 1.545  169.31 -77.403418 1.545
Q Nodo003  169.544405 -77.969329 1.51  169.544405 -77.969329 1.545  169.581985 -78.006909 1.545  169.581985 -78.006909 1.51
Q Nodo003  169.581985 -78.006909 1.51  169.581985 -78.006909 1.545  169.605156 -78.041713 1.545  169.605156 -78.04171300000002 1.51
Q Nodo003  169.605156 -78.041713 1.51  169.605156 -78.041713 1.545  169.534473 -78.184262 1.545  169.53447299999922 -78.18426199999577 1.51
Q Nodo003  169.534473 -78.184262 1.51  169.534473 -78.184262 1.545  168.033659 -78.187 1.545  168.033659 -78.187 1.51
Q Nodo003  168.033659 -78.187 1.51  168.033659 -78.187 1.545  167.919544 -78.106435 1.545  167.91954400000134 -78.10643499999948 1.51
Q Nodo003  167.919544 -78.106435 1.51  167.919544 -78.106435 1.545  167.877791 -77.987114 1.545  167.87779099999997 -77.98711400000002 1.51
Q Nodo003  167.877791 -77.987114 1.51  167.559692 -77.752352 1.51  167.55969200000138 -77.75235199999274 1.545  167.877791 -77.987114 1.545
Q Nodo003  167.559692 -77.752352 1.51  167.559692 -77.752352 1.545  166.44029 -77.752356 1.545  166.44029 -77.752356 1.51
Q Nodo003  166.44029 -77.752356 1.51  166.077352 -78.115306 1.51  166.07735199999775 -78.11530599999958 1.545  166.44029 -77.752356 1.545
Q Nodo003  166.077352 -78.115306 1.51  166.077352 -78.115306 1.545  166.077356 -78.959708 1.545  166.077356 -78.959708 1.51
Q Nodo003  166.077356 -78.959708 1.51  166.440301 -79.322646 1.51  166.44030100000057 -79.32264599999698 1.545  166.077356 -78.959708 1.545
Q Nodo003  166.440301 -79.322646 1.51  166.440301 -79.322646 1.545  166.537254 -79.325885 1.545  166.537254 -79.325885 1.51
Q Nodo003  166.537254 -79.325885 1.51  166.537254 -79.325885 1.545  166.572256 -79.334481 1.545  166.572256 -79.334481 1.51
Q Nodo003  166.572256 -79.334481 1.51  166.572256 -79.334481 1.545  166.618079 -79.357827 1.545  166.618079 -79.35782699999999 1.51
Q Nodo003  166.618079 -79.357827 1.51  166.618079 -79.357827 1.545  166.638704 -79.387629 1.545  166.638704 -79.387629 1.51
Q Nodo003  166.638704 -79.387629 1.51  166.638704 -79.387629 1.545  166.6495 -79.432585 1.545  166.6495 -79.432585 1.51
Q Nodo003  166.6495 -79.432585 1.51  166.6495 -79.432585 1.545  166.6495 -79.584819 1.545  166.6495 -79.584819 1.51
Q Nodo003  166.6495 -79.584819 1.51  166.6495 -79.584819 1.545  166.640532 -79.628098 1.545  166.640532 -79.628098 1.51
Q Nodo003  166.640532 -79.628098 1.51  166.640532 -79.628098 1.545  166.600459 -79.680584 1.545  166.600459 -79.680584 1.51
Q Nodo003  166.600459 -79.680584 1.51  166.600459 -79.680584 1.545  166.542271 -79.6995 1.545  166.542271 -79.6995 1.51
Q Nodo003  166.542271 -79.6995 1.51  166.542271 -79.6995 1.545  166.46529 -79.702356 1.545  166.46529 -79.702356 1.51
Q Nodo003  166.46529 -79.702356 1.51  166.177135 -79.888408 1.51  166.17713499999618 -79.88840799999734 1.545  166.46529 -79.702356 1.545
Q Nodo003  166.177135 -79.888408 1.51  166.177135 -79.888408 1.545  166.159494 -79.901024 1.545  166.159494 -79.901024 1.51
Q Nodo003  166.159494 -79.901024 1.51  166.159494 -79.901024 1.545  166.101903 -79.9195 1.545  166.101903 -79.91950000000001 1.51
Q Nodo003  166.101903 -79.9195 1.51  166.101903 -79.9195 1.545  165.744546 -79.9195 1.545  165.744546 -79.9195 1.51
Q Nodo003  165.744546 -79.9195 1.51  165.744546 -79.9195 1.545  165.690726 -79.907107 1.545  165.690726 -79.907107 1.51
Q Nodo003  165.690726 -79.907107 1.51  165.690726 -79.907107 1.545  165.651317 -79.882957 1.545  165.651317 -79.88295699999999 1.51
Q Nodo003  165.651317 -79.882957 1.51  165.651317 -79.882957 1.545  165.576347 -79.807988 1.545  165.576347 -79.807988 1.51
Q Nodo003  165.576347 -79.807988 1.51  165.576347 -79.807988 1.545  165.467509 -79.75478 1.545  165.467509 -79.75478000000003 1.51
Q Nodo003  165.467509 -79.75478 1.51  165.467509 -79.75478 1.545  165.396946 -79.7445 1.545  165.396946 -79.74449999999999 1.51
Q Nodo003  165.396946 -79.7445 1.51  165.396946 -79.7445 1.545  163.678032 -79.744503 1.545  163.678032 -79.744503 1.51
Q Nodo003  163.678032 -79.744503 1.51  163.678032 -79.744503 1.545  163.607479 -79.754783 1.545  163.607479 -79.75478300000002 1.51
Q Nodo003  163.607479 -79.754783 1.51  163.607479 -79.754783 1.545  163.498654 -79.807986 1.545  163.498654 -79.80798600000003 1.51
Q Nodo003  163.498654 -79.807986 1.51  163.498654 -79.807986 1.545  163.438256 -79.861529 1.545  163.43825600000002 -79.86152900000002 1.51
